10.1559	0.049592461
10.1762	0.049730027
10.1964	0.047322626
10.2166	0.048182412
10.2369	0.050383465
10.2571	0.048044846
10.2774	0.048767067
10.2976	0.048526327
10.3179	0.049730027
10.3381	0.047838498
10.3584	0.047047495
10.3786	0.047941672
10.3989	0.05028029
10.4191	0.046772363
10.4394	0.049007807
10.4596	0.047460192
10.4799	0.047838498
10.5001	0.047976064
10.5204	0.0474258
10.5406	0.045706228
10.5609	0.047976064
10.5811	0.046875537
10.6014	0.048423152
10.6216	0.047288235
10.6418	0.046841146
10.6621	0.045327922
10.6823	0.045052791
10.7026	0.048457544
10.7228	0.044846442
10.7431	0.046118926
10.7633	0.046497231
10.7836	0.045878186
10.8038	0.048285587
10.8241	0.048698284
10.8443	0.049764419
10.8646	0.047804106
10.8848	0.047735323
10.9051	0.047013103
10.9253	0.046015751
10.9456	0.045052791
10.9658	0.047460192
10.9861	0.04525914
11.0063	0.047013103
11.0266	0.048629501
11.0468	0.046325274
11.067	0.04955807
11.0873	0.04646284
11.1075	0.046737972
11.1278	0.046394057
11.148	0.046772363
11.1683	0.04549988
11.1885	0.048388761
11.2088	0.045362314
11.229	0.045637445
11.2493	0.04525914
11.2695	0.048423152
11.2898	0.0462221
11.31	0.045465488
11.3303	0.047941672
11.3505	0.046325274
11.3708	0.044640094
11.391	0.046531623
11.4113	0.04646284
11.4315	0.043814699
11.4518	0.045671837
11.472	0.047047495
11.4923	0.044812051
11.5125	0.045946968
11.5327	0.046153317
11.553	0.044433745
11.5732	0.043814699
11.5935	0.044330571
11.6137	0.045706228
11.634	0.044158613
11.6542	0.045431097
11.6745	0.045534271
11.6947	0.04336761
11.715	0.046566014
11.7352	0.044502528
11.7555	0.042748564
11.7757	0.047804106
11.796	0.044364962
11.8162	0.044021048
11.8365	0.043402002
11.8567	0.044021048
11.877	0.041888778
11.8972	0.043264436
11.9175	0.044640094
11.9377	0.043917873
11.9579	0.045431097
11.9782	0.046978712
11.9984	0.043814699
12.0187	0.04264539
12.0389	0.043711525
12.0592	0.042026344
12.0794	0.043161261
12.0997	0.046497231
12.1199	0.041613647
12.1402	0.04408983
12.1604	0.046084534
12.1807	0.045843794
12.2009	0.042129518
12.2212	0.041579255
12.2414	0.041613647
12.2617	0.042954913
12.2819	0.042301475
12.3022	0.042851738
12.3224	0.041991952
12.3427	0.042610998
12.3629	0.041716821
12.3831	0.041819995
12.4034	0.041544864
12.4236	0.042026344
12.4439	0.042095127
12.4641	0.042129518
12.4844	0.04003164
12.5046	0.042473433
12.5249	0.041751212
12.5451	0.042851738
12.5654	0.042851738
12.5856	0.04003164
12.6059	0.041407298
12.6261	0.042679781
12.6464	0.042370258
12.6666	0.040960209
12.6869	0.041028992
12.7071	0.041063383
12.7274	0.042232693
12.7476	0.040616295
12.7679	0.043161261
12.7881	0.043161261
12.8083	0.04003164
12.8286	0.043092479
12.8488	0.040341163
12.8691	0.041957561
12.8893	0.041028992
12.9096	0.039034288
12.9298	0.040306772
12.9501	0.040822643
12.9703	0.040066032
12.9906	0.040478729
13.0108	0.041200949
13.0311	0.041304124
13.0513	0.039825291
13.0716	0.039275028
13.0918	0.039103071
13.1121	0.041166558
13.1323	0.040444337
13.1526	0.039378203
13.1728	0.03955016
13.1931	0.039103071
13.2133	0.039653334
13.2335	0.038449634
13.2538	0.0385872
13.274	0.040100423
13.2943	0.037211542
13.3145	0.04003164
13.3348	0.037968154
13.355	0.037968154
13.3753	0.038105719
13.3955	0.038002545
13.4158	0.040237989
13.436	0.040478729
13.4563	0.038346459
13.4765	0.039894074
13.4968	0.037589848
13.517	0.038415242
13.5373	0.040685078
13.5575	0.037486673
13.5778	0.041579255
13.598	0.038449634
13.6183	0.037830588
13.6385	0.038518417
13.6588	0.038277677
13.679	0.037108367
13.6992	0.039137463
13.7195	0.038793548
13.7397	0.040581903
13.76	0.039103071
13.7802	0.037830588
13.8005	0.036007841
13.8207	0.038243285
13.841	0.036833236
13.8612	0.036489321
13.8815	0.037624239
13.9017	0.038621591
13.922	0.037555456
13.9422	0.037486673
13.9625	0.037142759
13.9827	0.038036936
14.003	0.034700966
14.0232	0.034769749
14.0435	0.036248581
14.0637	0.036626887
14.084	0.035079272
14.1042	0.038002545
14.1244	0.036282973
14.1447	0.035870275
14.1649	0.034494618
14.1852	0.037761805
14.2054	0.040685078
14.2257	0.038380851
14.2459	0.036317364
14.2662	0.034976098
14.2864	0.039412594
14.3067	0.035835884
14.3269	0.037039585
14.3472	0.03693641
14.3674	0.035285621
14.3877	0.036179798
14.4079	0.034219486
14.4282	0.033394092
14.4484	0.035595144
14.4687	0.034597792
14.4889	0.035698318
14.5092	0.035870275
14.5294	0.036489321
14.5496	0.038896722
14.5699	0.035044881
14.5901	0.034700966
14.6104	0.034838532
14.6306	0.03597345
14.6509	0.036282973
14.6711	0.036179798
14.6914	0.035320012
14.7116	0.036317364
14.7319	0.035904667
14.7521	0.034666575
14.7724	0.038896722
14.7926	0.036351756
14.8129	0.035698318
14.8331	0.034735358
14.8534	0.035801493
14.8736	0.035698318
14.8939	0.035113664
14.9141	0.037280325
14.9344	0.038174502
14.9546	0.036317364
14.9748	0.037005193
14.9951	0.039722117
15.0153	0.038896722
15.0356	0.04027238
15.0558	0.04574062
15.0761	0.052103037
15.0963	0.060769681
15.1166	0.080510369
15.1368	0.105684906
15.1571	0.136946728
15.1773	0.141073701
15.1976	0.117997042
15.2178	0.088695533
15.2381	0.063245864
15.2583	0.047907281
15.2786	0.04192317
15.2988	0.039275028
15.3191	0.037761805
15.3393	0.035526361
15.3596	0.035629535
15.3798	0.036902019
15.4001	0.03741789
15.4203	0.037073976
15.4405	0.037521065
15.4608	0.036386147
15.481	0.038208894
15.5013	0.034116312
15.5215	0.034150703
15.5418	0.035216838
15.562	0.036798844
15.5823	0.034907315
15.6025	0.034907315
15.6228	0.03645493
15.643	0.03597345
15.6633	0.034872924
15.6835	0.034391443
15.7038	0.03384118
15.724	0.034047529
15.7443	0.033703615
15.7645	0.034529009
15.7848	0.035388795
15.805	0.034150703
15.8253	0.03573271
15.8455	0.033153351
15.8657	0.034700966
15.886	0.034907315
15.9062	0.033153351
15.9265	0.035560752
15.9467	0.03693641
15.967	0.03573271
15.9872	0.034013138
16.0075	0.033084569
16.0277	0.032809437
16.048	0.034804141
16.0682	0.033944355
16.0885	0.033187743
16.1087	0.034632184
16.129	0.033531657
16.1492	0.033634832
16.1695	0.032947003
16.1897	0.033222134
16.21	0.033806789
16.2302	0.035320012
16.2505	0.033462874
16.2707	0.034425835
16.2909	0.033531657
16.3112	0.033015786
16.3314	0.034391443
16.3517	0.031502562
16.3719	0.034116312
16.3922	0.0333597
16.4124	0.032912611
16.4327	0.031846477
16.4529	0.033909963
16.4732	0.03263748
16.4934	0.033050177
16.5137	0.034185095
16.5339	0.031846477
16.5542	0.033806789
16.5744	0.033394092
16.5947	0.031949651
16.6149	0.032362348
16.6352	0.033222134
16.6554	0.034425835
16.6757	0.031949651
16.6959	0.030573993
16.7161	0.033909963
16.7364	0.033806789
16.7566	0.032534305
16.7769	0.032775046
16.7971	0.032947003
16.8174	0.033050177
16.8376	0.031296214
16.8579	0.03263748
16.8781	0.032981394
16.8984	0.030470819
16.9186	0.032052825
16.9389	0.034391443
16.9591	0.033944355
16.9794	0.032052825
16.9996	0.033462874
17.0199	0.031915259
17.0401	0.031502562
17.0604	0.03263748
17.0806	0.031158648
17.1009	0.032259174
17.1211	0.031124256
17.1413	0.032190391
17.1616	0.034219486
17.1818	0.032087217
17.2021	0.033634832
17.2223	0.031296214
17.2426	0.032534305
17.2628	0.032671871
17.2831	0.031708911
17.3033	0.029370293
17.3236	0.032052825
17.3438	0.032052825
17.3641	0.033772397
17.3843	0.030402036
17.4046	0.032465523
17.4248	0.032087217
17.4451	0.032327957
17.4653	0.029748599
17.4856	0.031915259
17.5058	0.031261822
17.5261	0.030333253
17.5463	0.031089865
17.5666	0.034597792
17.5868	0.031640128
17.607	0.031984042
17.6273	0.033669223
17.6475	0.033875572
17.6678	0.031743302
17.688	0.032327957
17.7083	0.032362348
17.7285	0.032499914
17.7488	0.032190391
17.769	0.031949651
17.7893	0.032431131
17.8095	0.032087217
17.8298	0.031158648
17.85	0.032671871
17.8703	0.033806789
17.8905	0.030436427
17.9108	0.032121608
17.931	0.032052825
17.9513	0.030539602
17.9715	0.033738006
17.9918	0.03311896
18.012	0.030642776
18.0322	0.032499914
18.0525	0.032775046
18.0727	0.030986691
18.093	0.031502562
18.1132	0.033462874
18.1335	0.03287822
18.1537	0.03263748
18.174	0.031502562
18.1942	0.030126904
18.2145	0.030436427
18.2347	0.0333597
18.255	0.031261822
18.2752	0.031158648
18.2955	0.031984042
18.3157	0.031880868
18.336	0.032052825
18.3562	0.031708911
18.3765	0.032465523
18.3967	0.030367645
18.417	0.030883516
18.4372	0.031640128
18.4574	0.031468171
18.4777	0.029370293
18.4979	0.031124256
18.5182	0.030367645
18.5384	0.031399388
18.5587	0.031468171
18.5789	0.029679816
18.5992	0.033256526
18.6194	0.031812085
18.6397	0.029679816
18.6599	0.031261822
18.6802	0.030917908
18.7004	0.031468171
18.7207	0.029645424
18.7409	0.032052825
18.7612	0.031915259
18.7814	0.030711559
18.8017	0.030711559
18.8219	0.034013138
18.8422	0.031193039
18.8624	0.030711559
18.8826	0.031193039
18.9029	0.029576641
18.9231	0.031708911
18.9434	0.032947003
18.9636	0.028785638
18.9839	0.030849125
19.0041	0.031364996
19.0244	0.031021082
19.0446	0.032499914
19.0649	0.031227431
19.0851	0.029611033
19.1054	0.031605736
19.1256	0.032018434
19.1459	0.03074595
19.1661	0.028991987
19.1864	0.032259174
19.2066	0.030230079
19.2269	0.031261822
19.2471	0.031261822
19.2674	0.032018434
19.2876	0.030711559
19.3079	0.032775046
19.3281	0.031605736
19.3483	0.03026447
19.3686	0.031399388
19.3888	0.032465523
19.4091	0.032224782
19.4293	0.032775046
19.4496	0.031812085
19.4698	0.030711559
19.4901	0.031915259
19.5103	0.030470819
19.5306	0.031330605
19.5508	0.031330605
19.5711	0.030608385
19.5913	0.029645424
19.6116	0.02978299
19.6318	0.030126904
19.6521	0.031915259
19.6723	0.031055473
19.6926	0.029989339
19.7128	0.029817381
19.7331	0.029886164
19.7533	0.027891461
19.7735	0.033084569
19.7938	0.030161296
19.814	0.031880868
19.8343	0.029886164
19.8545	0.030298862
19.8748	0.028854421
19.895	0.028682464
19.9153	0.031193039
19.9355	0.031399388
19.9558	0.031158648
19.976	0.032156
19.9963	0.031949651
20.0165	0.031227431
20.0368	0.031743302
20.057	0.029095161
20.0773	0.030849125
20.0975	0.029679816
20.1178	0.029576641
20.138	0.031640128
20.1583	0.031846477
20.1785	0.029439076
20.1987	0.029370293
20.219	0.030952299
20.2392	0.028682464
20.2595	0.030986691
20.2797	0.032121608
20.3	0.031193039
20.3202	0.030780342
20.3405	0.030092513
20.3607	0.030436427
20.381	0.031399388
20.4012	0.03026447
20.4215	0.029335901
20.4417	0.029404684
20.462	0.032293565
20.4822	0.031193039
20.5025	0.030195687
20.5227	0.030780342
20.543	0.032121608
20.5632	0.032156
20.5835	0.031640128
20.6037	0.030539602
20.6239	0.031777694
20.6442	0.030367645
20.6644	0.030608385
20.6847	0.030092513
20.7049	0.029576641
20.7252	0.028923204
20.7454	0.029817381
20.7657	0.031296214
20.7859	0.031124256
20.8062	0.03002373
20.8264	0.030986691
20.8467	0.031502562
20.8669	0.029714207
20.8872	0.028923204
20.9074	0.032603088
20.9277	0.030195687
20.9479	0.032293565
20.9682	0.030092513
20.9884	0.03239674
21.0087	0.02930151
21.0289	0.029748599
21.0491	0.030573993
21.0694	0.031158648
21.0896	0.030298862
21.1099	0.029267118
21.1301	0.03050521
21.1504	0.029026378
21.1706	0.029645424
21.1909	0.028476115
21.2111	0.030195687
21.2314	0.028029026
21.2516	0.029714207
21.2719	0.031468171
21.2921	0.027925852
21.3124	0.029714207
21.3326	0.030436427
21.3529	0.029267118
21.3731	0.028648072
21.3934	0.029267118
21.4136	0.030436427
21.4339	0.030780342
21.4541	0.030092513
21.4744	0.029335901
21.4946	0.029886164
21.5148	0.031296214
21.5351	0.032087217
21.5553	0.030367645
21.5756	0.029645424
21.5958	0.029851773
21.6161	0.029129553
21.6363	0.029095161
21.6566	0.030436427
21.6768	0.031502562
21.6971	0.029335901
21.7173	0.031227431
21.7376	0.028579289
21.7578	0.031261822
21.7781	0.030711559
21.7983	0.030402036
21.8186	0.030677168
21.8388	0.028716855
21.8591	0.03074595
21.8793	0.032018434
21.8996	0.030711559
21.9198	0.030436427
21.94	0.029851773
21.9603	0.030677168
21.9805	0.029163944
22.0008	0.030436427
22.021	0.031708911
22.0413	0.032156
22.0615	0.030608385
22.0818	0.031227431
22.102	0.030298862
22.1223	0.031949651
22.1425	0.031227431
22.1628	0.031364996
22.183	0.032156
22.2033	0.032809437
22.2235	0.030573993
22.2438	0.031571345
22.264	0.032499914
22.2843	0.029748599
22.3045	0.032156
22.3248	0.033187743
22.345	0.032706263
22.3652	0.033084569
22.3855	0.033428483
22.4057	0.032947003
22.426	0.036007841
22.4462	0.036420539
22.4665	0.037039585
22.4867	0.036798844
22.507	0.037005193
22.5272	0.038449634
22.5475	0.040444337
22.5677	0.038277677
22.588	0.038759157
22.6082	0.040994601
22.6285	0.039206245
22.6487	0.042301475
22.669	0.046875537
22.6892	0.04883585
22.7095	0.052618908
22.7297	0.061904598
22.75	0.079994497
22.7702	0.105960037
22.7904	0.167417547
22.8107	0.241806239
22.8309	0.307184373
22.8512	0.323245177
22.8714	0.296419851
22.8917	0.253361764
22.9119	0.201533858
22.9322	0.145716546
22.9524	0.110362142
22.9727	0.081576504
22.9929	0.071912508
23.0132	0.063211473
23.0334	0.055335832
23.0537	0.055335832
23.0739	0.054991918
23.0942	0.053203563
23.1144	0.052206211
23.1347	0.054200915
23.1549	0.056023661
23.1752	0.05743371
23.1954	0.055782921
23.2157	0.062867559
23.2359	0.061182378
23.2561	0.064174433
23.2764	0.058706194
23.2966	0.058087148
23.3169	0.050108333
23.3371	0.046015751
23.3574	0.043952265
23.3776	0.040375555
23.3979	0.038243285
23.4181	0.037452282
23.4384	0.035216838
23.4586	0.031468171
23.4789	0.031296214
23.4991	0.032706263
23.5194	0.032809437
23.5396	0.032156
23.5599	0.032809437
23.5801	0.034357052
23.6004	0.034907315
23.6206	0.033050177
23.6409	0.032912611
23.6611	0.032190391
23.6813	0.034219486
23.7016	0.030161296
23.7218	0.032327957
23.7421	0.031468171
23.7623	0.032671871
23.7826	0.033050177
23.8028	0.030986691
23.8231	0.030539602
23.8433	0.031984042
23.8636	0.031674519
23.8838	0.032775046
23.9041	0.03287822
23.9243	0.031468171
23.9446	0.03360044
23.9648	0.035560752
23.9851	0.033566049
24.0053	0.034253878
24.0256	0.036076624
24.0458	0.034357052
24.0661	0.035285621
24.0863	0.034150703
24.1065	0.036145407
24.1268	0.034288269
24.147	0.033015786
24.1673	0.035216838
24.1875	0.034666575
24.2078	0.033222134
24.228	0.032327957
24.2483	0.032018434
24.2685	0.032465523
24.2888	0.031261822
24.309	0.03074595
24.3293	0.029611033
24.3495	0.032912611
24.3698	0.03239674
24.39	0.031433779
24.4103	0.033738006
24.4305	0.032603088
24.4508	0.030952299
24.471	0.03026447
24.4913	0.028923204
24.5115	0.032190391
24.5317	0.030608385
24.552	0.029645424
24.5722	0.032087217
24.5925	0.031124256
24.6127	0.03026447
24.633	0.034185095
24.6532	0.032327957
24.6735	0.031158648
24.6937	0.030470819
24.714	0.029473467
24.7342	0.03050521
24.7545	0.030677168
24.7747	0.029954947
24.795	0.032706263
24.8152	0.031296214
24.8355	0.03050521
24.8557	0.028854421
24.876	0.033050177
24.8962	0.02930151
24.9165	0.032293565
24.9367	0.030230079
24.9569	0.028166592
24.9772	0.031055473
24.9974	0.028579289
25.0177	0.029198335
25.0379	0.029886164
25.0582	0.030470819
25.0784	0.030092513
25.0987	0.028923204
25.1189	0.030711559
25.1392	0.029267118
25.1594	0.029954947
25.1797	0.03002373
25.1999	0.030917908
25.2202	0.028613681
25.2404	0.030608385
25.2607	0.028235375
25.2809	0.031812085
25.3012	0.031089865
25.3214	0.032087217
25.3417	0.030849125
25.3619	0.028957595
25.3822	0.03050521
25.4024	0.029920556
25.4226	0.028544898
25.4429	0.03002373
25.4631	0.02882003
25.4834	0.026756543
25.5036	0.031158648
25.5239	0.030230079
25.5441	0.028304158
25.5644	0.029267118
25.5846	0.02930151
25.6049	0.027891461
25.6251	0.029679816
25.6454	0.028579289
25.6656	0.029026378
25.6859	0.031605736
25.7061	0.030436427
25.7264	0.030780342
25.7466	0.030986691
25.7669	0.029507858
25.7871	0.030539602
25.8074	0.030161296
25.8276	0.031605736
25.8478	0.030677168
25.8681	0.030677168
25.8883	0.030642776
25.9086	0.028682464
25.9288	0.03050521
25.9491	0.029473467
25.9693	0.028923204
25.9896	0.031812085
26.0098	0.027788286
26.0301	0.031124256
26.0503	0.031193039
26.0706	0.029989339
26.0908	0.02954225
26.1111	0.029920556
26.1313	0.031708911
26.1516	0.031364996
26.1718	0.030436427
26.1921	0.030849125
26.2123	0.030608385
26.2326	0.02882003
26.2528	0.030161296
26.273	0.031536954
26.2933	0.02978299
26.3135	0.029267118
26.3338	0.029473467
26.354	0.03002373
26.3743	0.029473467
26.3945	0.029679816
26.4148	0.028544898
26.435	0.030298862
26.4553	0.027994635
26.4755	0.029198335
26.4958	0.030058122
26.516	0.029817381
26.5363	0.029404684
26.5565	0.030436427
26.5768	0.031089865
26.597	0.031330605
26.6173	0.029335901
26.6375	0.031158648
26.6578	0.031193039
26.678	0.028923204
26.6982	0.029886164
26.7185	0.031261822
26.7387	0.032603088
26.759	0.031158648
26.7792	0.029989339
26.7995	0.029026378
26.8197	0.031296214
26.84	0.031089865
26.8602	0.031777694
26.8805	0.03002373
26.9007	0.029370293
26.921	0.031261822
26.9412	0.030952299
26.9615	0.031193039
26.9817	0.030092513
27.002	0.031158648
27.0222	0.030814733
27.0425	0.030711559
27.0627	0.029473467
27.083	0.030986691
27.1032	0.02978299
27.1235	0.031674519
27.1437	0.030402036
27.1639	0.030677168
27.1842	0.029439076
27.2044	0.032121608
27.2247	0.032534305
27.2449	0.030917908
27.2652	0.031915259
27.2854	0.033222134
27.3057	0.031949651
27.3259	0.033394092
27.3462	0.033944355
27.3664	0.0333597
27.3867	0.034632184
27.4069	0.034838532
27.4272	0.036730062
27.4474	0.03645493
27.4677	0.03930942
27.4879	0.044743268
27.5082	0.048251195
27.5284	0.052928431
27.5487	0.060666506
27.5689	0.061285552
27.5891	0.058327888
27.6094	0.056401967
27.6296	0.054819961
27.6499	0.053650652
27.6701	0.049110981
27.6904	0.046772363
27.7106	0.047632149
27.7309	0.04883585
27.7511	0.048698284
27.7714	0.050692988
27.7916	0.0526533
27.8119	0.061870207
27.8321	0.064449565
27.8524	0.068163841
27.8726	0.074457475
27.8929	0.073563297
27.9131	0.068714104
27.9334	0.064483956
27.9536	0.060976029
27.9739	0.051277642
27.9941	0.043952265
28.0143	0.039756509
28.0346	0.038346459
28.0548	0.036351756
28.0751	0.034872924
28.0953	0.035320012
28.1156	0.034529009
28.1358	0.036076624
28.1561	0.033325309
28.1763	0.034838532
28.1966	0.033566049
28.2168	0.033703615
28.2371	0.032809437
28.2573	0.033325309
28.2776	0.033462874
28.2978	0.031846477
28.3181	0.035010489
28.3383	0.034219486
28.3586	0.035320012
28.3788	0.032740654
28.3991	0.036111016
28.4193	0.032121608
28.4395	0.03239674
28.4598	0.031846477
28.48	0.029989339
28.5003	0.031227431
28.5205	0.031880868
28.5408	0.031021082
28.561	0.031089865
28.5813	0.031846477
28.6015	0.03050521
28.6218	0.031674519
28.642	0.028682464
28.6623	0.031812085
28.6825	0.030883516
28.7028	0.029507858
28.723	0.030470819
28.7433	0.028682464
28.7635	0.029714207
28.7838	0.02978299
28.804	0.02930151
28.8243	0.030436427
28.8445	0.03026447
28.8647	0.031777694
28.885	0.032947003
28.9052	0.029611033
28.9255	0.031193039
28.9457	0.030986691
28.966	0.029473467
28.9862	0.030539602
29.0065	0.030470819
29.0267	0.02978299
29.047	0.03050521
29.0672	0.032121608
29.0875	0.033772397
29.1077	0.034116312
29.128	0.033634832
29.1482	0.035526361
29.1685	0.035698318
29.1887	0.037452282
29.209	0.035354404
29.2292	0.037314716
29.2495	0.03360044
29.2697	0.03549197
29.29	0.03384118
29.3102	0.034597792
29.3304	0.033978746
29.3507	0.03360044
29.3709	0.031812085
29.3912	0.031502562
29.4114	0.032671871
29.4317	0.030642776
29.4519	0.029989339
29.4722	0.030573993
29.4924	0.030470819
29.5127	0.031640128
29.5329	0.02930151
29.5532	0.032534305
29.5734	0.031915259
29.5937	0.030058122
29.6139	0.031158648
29.6342	0.03074595
29.6544	0.032809437
29.6747	0.028923204
29.6949	0.030849125
29.7152	0.029989339
29.7354	0.031674519
29.7556	0.031949651
29.7759	0.030883516
29.7961	0.030161296
29.8164	0.033634832
29.8366	0.032156
29.8569	0.032087217
29.8771	0.032740654
29.8974	0.032052825
29.9176	0.034597792
29.9379	0.034219486
29.9581	0.031915259
29.9784	0.030883516
29.9986	0.032981394
30.0189	0.032465523
30.0391	0.033050177
30.0594	0.033806789
30.0796	0.034150703
30.0999	0.030814733
30.1201	0.034013138
30.1404	0.032327957
30.1606	0.031158648
30.1808	0.030986691
30.2011	0.030230079
30.2213	0.028579289
30.2416	0.031296214
30.2618	0.030333253
30.2821	0.030952299
30.3023	0.032431131
30.3226	0.030333253
30.3428	0.03002373
30.3631	0.030436427
30.3833	0.031674519
30.4036	0.030573993
30.4238	0.030539602
30.4441	0.031640128
30.4643	0.03263748
30.4846	0.031880868
30.5048	0.035182447
30.5251	0.03549197
30.5453	0.03693641
30.5656	0.043161261
30.5858	0.04931733
30.606	0.050968119
30.6263	0.049007807
30.6465	0.047563366
30.6668	0.048560718
30.687	0.043780307
30.7073	0.039171854
30.7275	0.037899371
30.7478	0.034322661
30.768	0.034529009
30.7883	0.032603088
30.8085	0.032224782
30.8288	0.030161296
30.849	0.031089865
30.8693	0.031502562
30.8895	0.032087217
30.9098	0.029198335
30.93	0.031812085
30.9503	0.030952299
30.9705	0.031502562
30.9908	0.030608385
31.011	0.030573993
31.0313	0.030917908
31.0515	0.030780342
31.0717	0.03002373
31.092	0.031227431
31.1122	0.030849125
31.1325	0.031536954
31.1527	0.030780342
31.173	0.030608385
31.1932	0.031674519
31.2135	0.031089865
31.2337	0.030333253
31.254	0.029748599
31.2742	0.029267118
31.2945	0.031364996
31.3147	0.031055473
31.335	0.030573993
31.3552	0.031812085
31.3755	0.033428483
31.3957	0.032362348
31.416	0.034391443
31.4362	0.033394092
31.4565	0.032499914
31.4767	0.035148055
31.4969	0.032706263
31.5172	0.034357052
31.5374	0.035423187
31.5577	0.035285621
31.5779	0.035870275
31.5982	0.039103071
31.6184	0.035216838
31.6387	0.037830588
31.6589	0.040341163
31.6792	0.03930942
31.6994	0.038552808
31.7197	0.040685078
31.7399	0.041510472
31.7602	0.040169206
31.7804	0.042301475
31.8007	0.040650686
31.8209	0.042026344
31.8412	0.044812051
31.8614	0.04240465
31.8817	0.041991952
31.9019	0.042748564
31.9221	0.04549988
31.9424	0.043470784
31.9626	0.044949617
31.9829	0.046978712
32.0031	0.048457544
32.0234	0.049936376
32.0436	0.048732675
32.0639	0.052722083
32.0841	0.054510438
32.1044	0.051896688
32.1246	0.057227362
32.1449	0.058190322
32.1651	0.059978677
32.1854	0.061216769
32.2056	0.065240568
32.2259	0.067269663
32.2461	0.0731506
32.2664	0.076589744
32.2866	0.079788149
32.3069	0.083192902
32.3271	0.09578017
32.3473	0.104962685
32.3676	0.117274822
32.3878	0.134539327
32.4081	0.15201018
32.4283	0.184131788
32.4486	0.224576125
32.4688	0.280702961
32.4891	0.378065137
32.5093	0.487601885
32.5296	0.55992709
32.5498	0.584895278
32.5701	0.552670496
32.5903	0.526223476
32.6106	0.521890154
32.6308	0.506448396
32.6511	0.461086082
32.6713	0.447295113
32.6916	0.444784538
32.7118	0.46937442
32.7321	0.537228737
32.7523	0.647178182
32.7726	0.770368332
32.7928	0.903360044
32.813	0.988203735
32.8333	1
32.8535	0.9280531
32.8738	0.835299378
32.894	0.719881693
32.9143	0.610757643
32.9345	0.504591258
32.9548	0.383705334
32.975	0.289747911
32.9953	0.227808921
33.0155	0.182377824
33.0358	0.158854077
33.056	0.13581181
33.0763	0.123086976
33.0965	0.107232521
33.1168	0.097671699
33.137	0.090036799
33.1573	0.086081783
33.1775	0.077655879
33.1978	0.074319909
33.218	0.070124153
33.2382	0.063589779
33.2585	0.061629467
33.2787	0.059634763
33.299	0.053994566
33.3192	0.05337552
33.3395	0.052137428
33.3597	0.051105685
33.38	0.049214156
33.4002	0.045431097
33.4205	0.047838498
33.4407	0.044193005
33.461	0.04264539
33.4812	0.044399353
33.5015	0.042920521
33.5217	0.041579255
33.542	0.044743268
33.5622	0.038243285
33.5825	0.041716821
33.6027	0.040616295
33.623	0.040616295
33.6432	0.039481377
33.6634	0.041510472
33.6837	0.042507824
33.7039	0.045396705
33.7242	0.045155965
33.7444	0.047288235
33.7647	0.045603054
33.7849	0.045637445
33.8052	0.042301475
33.8254	0.042679781
33.8457	0.043195653
33.8659	0.040719469
33.8862	0.03906868
33.9064	0.039378203
33.9267	0.040169206
33.9469	0.038277677
33.9672	0.038655982
33.9874	0.034391443
34.0077	0.037830588
34.0279	0.037108367
34.0482	0.036179798
34.0684	0.035113664
34.0886	0.034666575
34.1089	0.037211542
34.1291	0.037314716
34.1494	0.037555456
34.1696	0.033153351
34.1899	0.035835884
34.2101	0.034666575
34.2304	0.033462874
34.2506	0.034907315
34.2709	0.035148055
34.2911	0.035216838
34.3114	0.035526361
34.3316	0.033187743
34.3519	0.035354404
34.3721	0.036317364
34.3924	0.033875572
34.4126	0.034529009
34.4329	0.033772397
34.4531	0.032087217
34.4734	0.032740654
34.4936	0.033084569
34.5138	0.034219486
34.5341	0.034838532
34.5543	0.033153351
34.5746	0.032431131
34.5948	0.031433779
34.6151	0.030058122
34.6353	0.034529009
34.6556	0.031846477
34.6758	0.032327957
34.6961	0.034700966
34.7163	0.032190391
34.7366	0.033806789
34.7568	0.030058122
34.7771	0.033978746
34.7973	0.034357052
34.8176	0.032087217
34.8378	0.03360044
34.8581	0.031777694
34.8783	0.032259174
34.8986	0.031777694
34.9188	0.032499914
34.9391	0.031433779
34.9593	0.033290917
34.9795	0.033394092
34.9998	0.033222134
35.02	0.031571345
35.0403	0.032603088
35.0605	0.033703615
35.0808	0.032293565
35.101	0.030780342
35.1213	0.033634832
35.1415	0.032706263
35.1618	0.033153351
35.182	0.031915259
35.2023	0.031605736
35.2225	0.033153351
35.2428	0.033772397
35.263	0.031261822
35.2833	0.032603088
35.3035	0.033909963
35.3238	0.031674519
35.344	0.033738006
35.3643	0.032843828
35.3845	0.032534305
35.4047	0.032121608
35.425	0.033187743
35.4452	0.033187743
35.4655	0.034563401
35.4857	0.033497266
35.506	0.033187743
35.5262	0.03597345
35.5465	0.036489321
35.5667	0.034391443
35.587	0.033703615
35.6072	0.034322661
35.6275	0.031777694
35.6477	0.032018434
35.668	0.03311896
35.6882	0.033222134
35.7085	0.032327957
35.7287	0.033738006
35.749	0.032671871
35.7692	0.032947003
35.7895	0.034288269
35.8097	0.033256526
35.8299	0.030092513
35.8502	0.032327957
35.8704	0.032327957
35.8907	0.032809437
35.9109	0.031124256
35.9312	0.030917908
35.9514	0.030436427
35.9717	0.033497266
35.9919	0.031124256
36.0122	0.033015786
36.0324	0.031261822
36.0527	0.034150703
36.0729	0.03384118
36.0932	0.031846477
36.1134	0.03263748
36.1337	0.032671871
36.1539	0.035182447
36.1742	0.034185095
36.1944	0.032740654
36.2147	0.033944355
36.2349	0.035388795
36.2551	0.039928466
36.2754	0.039722117
36.2956	0.044468136
36.3159	0.047391409
36.3361	0.054510438
36.3564	0.053169172
36.3766	0.053065997
36.3969	0.04931733
36.4171	0.046909929
36.4374	0.04312687
36.4576	0.043161261
36.4779	0.038140111
36.4981	0.037383499
36.5184	0.034597792
36.5386	0.033531657
36.5589	0.033875572
36.5791	0.033462874
36.5994	0.032293565
36.6196	0.033222134
36.6399	0.032671871
36.6601	0.031296214
36.6804	0.030092513
36.7006	0.031915259
36.7208	0.029851773
36.7411	0.029576641
36.7613	0.030092513
36.7816	0.030470819
36.8018	0.031846477
36.8221	0.029232727
36.8423	0.029645424
36.8626	0.029611033
36.8828	0.028785638
36.9031	0.030195687
36.9233	0.030814733
36.9436	0.028304158
36.9638	0.030367645
36.9841	0.029232727
37.0043	0.029714207
37.0246	0.030952299
37.0448	0.030402036
37.0651	0.032190391
37.0853	0.031330605
37.1056	0.028097809
37.1258	0.032224782
37.146	0.028716855
37.1663	0.02978299
37.1865	0.029576641
37.2068	0.028991987
37.227	0.031984042
37.2473	0.031674519
37.2675	0.029370293
37.2878	0.031089865
37.308	0.030161296
37.3283	0.030436427
37.3485	0.031502562
37.3688	0.030642776
37.389	0.030849125
37.4093	0.029920556
37.4295	0.030986691
37.4498	0.029611033
37.47	0.031846477
37.4903	0.031433779
37.5105	0.029198335
37.5308	0.031777694
37.551	0.031158648
37.5712	0.030230079
37.5915	0.030402036
37.6117	0.031330605
37.632	0.030161296
37.6522	0.031880868
37.6725	0.03026447
37.6927	0.030092513
37.713	0.030470819
37.7332	0.031468171
37.7535	0.029473467
37.7737	0.032431131
37.794	0.031055473
37.8142	0.031364996
37.8345	0.030952299
37.8547	0.030573993
37.875	0.031399388
37.8952	0.02978299
37.9155	0.031846477
37.9357	0.031502562
37.956	0.031743302
37.9762	0.030642776
37.9964	0.031330605
38.0167	0.032775046
38.0369	0.032568697
38.0572	0.032843828
38.0774	0.033428483
38.0977	0.034116312
38.1179	0.03549197
38.1382	0.034941707
38.1584	0.035767101
38.1787	0.034597792
38.1989	0.035595144
38.2192	0.038036936
38.2394	0.038380851
38.2597	0.040203597
38.2799	0.042714173
38.3002	0.041716821
38.3204	0.044880834
38.3407	0.048629501
38.3609	0.05076177
38.3812	0.051759122
38.4014	0.060563332
38.4216	0.071362245
38.4419	0.08838601
38.4621	0.121539361
38.4824	0.168346115
38.5026	0.233930598
38.5229	0.267599821
38.5431	0.2644702
38.5634	0.235375039
38.5836	0.214946521
38.6039	0.205488874
38.6241	0.197510059
38.6444	0.172645046
38.6646	0.144340888
38.6849	0.119338309
38.7051	0.097706091
38.7254	0.088317227
38.7456	0.078274925
38.7659	0.076899267
38.7861	0.072222031
38.8064	0.066065963
38.8266	0.060976029
38.8469	0.059222066
38.8671	0.057571276
38.8873	0.053272346
38.9076	0.047013103
38.9278	0.046634797
38.9481	0.041476081
38.9683	0.039687726
38.9886	0.036902019
39.0088	0.036833236
39.0291	0.037624239
39.0493	0.035526361
39.0696	0.034425835
39.0898	0.033703615
39.1101	0.033497266
39.1303	0.033772397
39.1506	0.033462874
39.1708	0.032671871
39.1911	0.03311896
39.2113	0.030986691
39.2316	0.03239674
39.2518	0.032327957
39.2721	0.032534305
39.2923	0.032465523
39.3125	0.031193039
39.3328	0.029507858
39.353	0.030402036
39.3733	0.033531657
39.3935	0.032052825
39.4138	0.031571345
39.434	0.030402036
39.4543	0.031880868
39.4745	0.031055473
39.4948	0.031227431
39.515	0.031468171
39.5353	0.02978299
39.5555	0.03026447
39.5758	0.030230079
39.596	0.030402036
39.6163	0.032362348
39.6365	0.031777694
39.6568	0.030711559
39.677	0.030058122
39.6973	0.030436427
39.7175	0.030677168
39.7377	0.0333597
39.758	0.032327957
39.7782	0.029611033
39.7985	0.030402036
39.8187	0.033566049
39.839	0.0333597
39.8592	0.031193039
39.8795	0.033497266
39.8997	0.0333597
39.92	0.035216838
39.9402	0.033944355
39.9605	0.035767101
39.9807	0.034769749
40.001	0.035629535
40.0212	0.036833236
40.0415	0.03955016
40.0617	0.037383499
40.082	0.039206245
40.1022	0.039206245
40.1225	0.039859683
40.1427	0.041338515
40.1629	0.043780307
40.1832	0.047735323
40.2034	0.049248547
40.2237	0.051587165
40.2439	0.060150635
40.2642	0.069195584
40.2844	0.08054476
40.3047	0.10172989
40.3249	0.135227155
40.3452	0.161605393
40.3654	0.180383121
40.3857	0.164287925
40.4059	0.141692747
40.4262	0.127936169
40.4464	0.12676686
40.4667	0.120542009
40.4869	0.1117378
40.5072	0.091309282
40.5274	0.073494515
40.5477	0.060769681
40.5679	0.053685043
40.5882	0.051140076
40.6084	0.046359666
40.6286	0.042542215
40.6489	0.039928466
40.6691	0.0397909
40.6894	0.038724765
40.7096	0.039343811
40.7299	0.036111016
40.7501	0.034219486
40.7704	0.035388795
40.7906	0.033325309
40.8109	0.035113664
40.8311	0.032912611
40.8514	0.033187743
40.8716	0.031502562
40.8919	0.031915259
40.9121	0.030917908
40.9324	0.030367645
40.9526	0.032018434
40.9729	0.032087217
40.9931	0.031743302
41.0134	0.030986691
41.0336	0.030298862
41.0538	0.029611033
41.0741	0.029886164
41.0943	0.031296214
41.1146	0.029198335
41.1348	0.02954225
41.1551	0.030126904
41.1753	0.029817381
41.1956	0.029267118
41.2158	0.030436427
41.2361	0.029095161
41.2563	0.030677168
41.2766	0.029198335
41.2968	0.028716855
41.3171	0.02930151
41.3373	0.030367645
41.3576	0.028957595
41.3778	0.02930151
41.3981	0.030642776
41.4183	0.030161296
41.4386	0.028991987
41.4588	0.029404684
41.479	0.031743302
41.4993	0.02906077
41.5195	0.028613681
41.5398	0.029920556
41.56	0.029645424
41.5803	0.02954225
41.6005	0.027203632
41.6208	0.029335901
41.641	0.027788286
41.6613	0.028854421
41.6815	0.030195687
41.7018	0.029714207
41.722	0.029679816
41.7423	0.028854421
41.7625	0.029507858
41.7828	0.02930151
41.803	0.029920556
41.8233	0.028235375
41.8435	0.028716855
41.8638	0.02882003
41.884	0.029645424
41.9042	0.031880868
41.9245	0.028338549
41.9447	0.030711559
41.965	0.029404684
41.9852	0.029886164
42.0055	0.029026378
42.0257	0.029370293
42.046	0.028235375
42.0662	0.028269766
42.0865	0.029404684
42.1067	0.026790934
42.127	0.029163944
42.1472	0.029404684
42.1675	0.029129553
42.1877	0.028682464
42.208	0.029989339
42.2282	0.028751247
42.2485	0.027857069
42.2687	0.028751247
42.289	0.028407332
42.3092	0.028063418
42.3294	0.028510507
42.3497	0.028785638
42.3699	0.028613681
42.3902	0.029267118
42.4104	0.027031675
42.4307	0.027960243
42.4509	0.028648072
42.4712	0.028063418
42.4914	0.027960243
42.5117	0.027753895
42.5319	0.028785638
42.5522	0.029267118
42.5724	0.028132201
42.5927	0.029679816
42.6129	0.028407332
42.6332	0.029714207
42.6534	0.027994635
42.6737	0.028682464
42.6939	0.029851773
42.7142	0.028338549
42.7344	0.027513155
42.7547	0.028063418
42.7749	0.028029026
42.7951	0.027822678
42.8154	0.029886164
42.8356	0.026378237
42.8559	0.028097809
42.8761	0.030161296
42.8964	0.029267118
42.9166	0.028063418
42.9369	0.027650721
42.9571	0.028407332
42.9774	0.026790934
42.9976	0.029473467
43.0179	0.028132201
43.0381	0.028476115
43.0584	0.028166592
43.0786	0.02668776
43.0989	0.028751247
43.1191	0.027513155
43.1394	0.028304158
43.1596	0.026309454
43.1799	0.027203632
43.2001	0.027478763
43.2203	0.02740998
43.2406	0.027650721
43.2608	0.026962892
43.2811	0.028957595
43.3013	0.027100457
43.3216	0.027478763
43.3418	0.027822678
43.3621	0.028063418
43.3823	0.026412629
43.4026	0.03026447
43.4228	0.027891461
43.4431	0.028304158
43.4633	0.028544898
43.4836	0.027478763
43.5038	0.027994635
43.5241	0.028785638
43.5443	0.028682464
43.5646	0.027444372
43.5848	0.027478763
43.6051	0.025827974
43.6253	0.027306806
43.6455	0.027994635
43.6658	0.027238023
43.686	0.027788286
43.7063	0.026171888
43.7265	0.026171888
43.7468	0.02716924
43.767	0.029026378
43.7873	0.028957595
43.8075	0.026859717
43.8278	0.027513155
43.848	0.026137497
43.8683	0.02740998
43.8885	0.028785638
43.9088	0.027650721
43.929	0.028923204
43.9493	0.030952299
43.9695	0.028510507
43.9898	0.026378237
44.01	0.028166592
44.0303	0.028476115
44.0505	0.027306806
44.0707	0.02882003
44.091	0.02954225
44.1112	0.027134849
44.1315	0.029920556
44.1517	0.029370293
44.172	0.027857069
44.1922	0.028991987
44.2125	0.028957595
44.2327	0.028991987
44.253	0.027616329
44.2732	0.027719503
44.2935	0.027753895
44.3137	0.028648072
44.334	0.03026447
44.3542	0.027857069
44.3745	0.028304158
44.3947	0.027306806
44.415	0.02882003
44.4352	0.028854421
44.4555	0.026825326
44.4757	0.027272415
44.496	0.026171888
44.5162	0.029473467
44.5364	0.027891461
44.5567	0.028269766
44.5769	0.027444372
44.5972	0.028097809
44.6174	0.028063418
44.6377	0.027478763
44.6579	0.028716855
44.6782	0.027891461
44.6984	0.027788286
44.7187	0.027925852
44.7389	0.029748599
44.7592	0.025690408
44.7794	0.027306806
44.7997	0.025518451
44.8199	0.029370293
44.8402	0.028407332
44.8604	0.027616329
44.8807	0.027788286
44.9009	0.028682464
44.9212	0.027238023
44.9414	0.028166592
44.9616	0.029232727
44.9819	0.029335901
45.0021	0.028372941
45.0224	0.027719503
45.0426	0.029026378
45.0629	0.029473467
45.0831	0.029645424
45.1034	0.030539602
45.1236	0.03074595
45.1439	0.029989339
45.1641	0.030608385
45.1844	0.02954225
45.2046	0.031364996
45.2249	0.031812085
45.2451	0.034460226
45.2654	0.034804141
45.2856	0.034253878
45.3059	0.035457578
45.3261	0.034769749
45.3464	0.034529009
45.3666	0.035010489
45.3868	0.033909963
45.4071	0.036626887
45.4273	0.037486673
45.4476	0.035251229
45.4678	0.037314716
45.4881	0.038105719
45.5083	0.036076624
45.5286	0.035904667
45.5488	0.036111016
45.5691	0.035388795
45.5893	0.034700966
45.6096	0.035663927
45.6298	0.034185095
45.6501	0.032362348
45.6703	0.033290917
45.6906	0.031743302
45.7108	0.030814733
45.7311	0.029473467
45.7513	0.030298862
45.7716	0.031055473
45.7918	0.03263748
45.812	0.029989339
45.8323	0.029507858
45.8525	0.031812085
45.8728	0.030849125
45.893	0.033566049
45.9133	0.030986691
45.9335	0.031640128
45.9538	0.032190391
45.974	0.033325309
45.9943	0.032603088
46.0145	0.031261822
46.0348	0.031536954
46.055	0.033428483
46.0753	0.031021082
46.0955	0.032740654
46.1158	0.033875572
46.136	0.036179798
46.1563	0.034872924
46.1765	0.036661279
46.1968	0.037280325
46.217	0.035835884
46.2372	0.038690374
46.2575	0.038552808
46.2777	0.038690374
46.298	0.040581903
46.3182	0.042542215
46.3385	0.044468136
46.3587	0.047357018
46.379	0.048044846
46.3992	0.049179764
46.4195	0.051759122
46.4397	0.056333184
46.46	0.061354335
46.4802	0.068232624
46.5005	0.073460123
46.5207	0.086081783
46.541	0.099941535
46.5612	0.129243044
46.5815	0.169446642
46.6017	0.227636964
46.622	0.291123568
46.6422	0.325824535
46.6625	0.326649929
46.6827	0.302163222
46.7029	0.291501874
46.7232	0.284176497
46.7434	0.281012484
46.7637	0.272173883
46.7839	0.241221584
46.8042	0.211266637
46.8244	0.182171476
46.8447	0.156790591
46.8649	0.134092238
46.8852	0.117034082
46.9054	0.099012966
46.9257	0.085875434
46.9459	0.078584448
46.9662	0.071327854
46.9864	0.067063315
47.0067	0.063452213
47.0269	0.062523644
47.0472	0.058396671
47.0674	0.054372872
47.0877	0.054888744
47.1079	0.053031606
47.1281	0.051208859
47.1484	0.049936376
47.1686	0.050830553
47.1889	0.052825257
47.2091	0.052962823
47.2294	0.050452247
47.2496	0.050933728
47.2699	0.053857
47.2901	0.054304089
47.3104	0.057743233
47.3306	0.059909894
47.3509	0.061491901
47.3711	0.064931045
47.3914	0.067028923
47.4116	0.073563297
47.4319	0.080579152
47.4521	0.085015648
47.4724	0.092719331
47.4926	0.098084397
47.5129	0.100457406
47.5331	0.108608178
47.5533	0.103483853
47.5736	0.108505004
47.5938	0.100938886
47.6141	0.092512983
47.6343	0.089211404
47.6546	0.085153214
47.6748	0.079994497
47.6951	0.071362245
47.7153	0.066306703
47.7356	0.060081852
47.7558	0.054028958
47.7761	0.047460192
47.7963	0.046669189
47.8166	0.043402002
47.8368	0.040685078
47.8571	0.038931114
47.8773	0.037142759
47.8976	0.038724765
47.9178	0.036351756
47.9381	0.036042233
47.9583	0.032706263
47.9785	0.033909963
47.9988	0.033634832
48.019	0.032534305
48.0393	0.032224782
48.0595	0.031021082
48.0798	0.030161296
48.1	0.032087217
48.1203	0.031674519
48.1405	0.030677168
48.1608	0.030367645
48.181	0.029026378
48.2013	0.031640128
48.2215	0.030814733
48.2418	0.029335901
48.262	0.030436427
48.2823	0.029817381
48.3025	0.029129553
48.3228	0.028854421
48.343	0.027822678
48.3633	0.031296214
48.3835	0.029920556
48.4038	0.029163944
48.424	0.029439076
48.4442	0.02882003
48.4645	0.029267118
48.4847	0.029954947
48.505	0.030470819
48.5252	0.029404684
48.5455	0.030436427
48.5657	0.029954947
48.586	0.029095161
48.6062	0.028407332
48.6265	0.028510507
48.6467	0.029163944
48.667	0.029714207
48.6872	0.029851773
48.7075	0.030230079
48.7277	0.028991987
48.748	0.029198335
48.7682	0.028476115
48.7885	0.029163944
48.8087	0.030642776
48.829	0.026997283
48.8492	0.029404684
48.8694	0.032809437
48.8897	0.028510507
48.9099	0.030333253
48.9302	0.028338549
48.9504	0.028476115
48.9707	0.029370293
48.9909	0.030436427
49.0112	0.027375589
49.0314	0.027719503
49.0517	0.028510507
49.0719	0.028751247
49.0922	0.028716855
49.1124	0.029851773
49.1327	0.027891461
49.1529	0.029954947
49.1732	0.03002373
49.1934	0.028269766
49.2137	0.029576641
49.2339	0.029851773
49.2542	0.028097809
49.2744	0.029026378
49.2946	0.030642776
49.3149	0.028235375
49.3351	0.030058122
49.3554	0.028063418
49.3756	0.027857069
49.3959	0.028923204
49.4161	0.02882003
49.4364	0.029507858
49.4566	0.028957595
49.4769	0.028888812
49.4971	0.02978299
49.5174	0.029989339
49.5376	0.028269766
49.5579	0.030161296
49.5781	0.028991987
49.5984	0.030539602
49.6186	0.026962892
49.6389	0.028200984
49.6591	0.028682464
49.6794	0.028097809
49.6996	0.030298862
49.7198	0.027719503
49.7401	0.027719503
49.7603	0.028235375
49.7806	0.025518451
49.8008	0.027272415
49.8211	0.028682464
49.8413	0.027581938
49.8616	0.02978299
49.8818	0.027478763
49.9021	0.02906077
49.9223	0.027719503
49.9426	0.029267118
49.9628	0.028200984
49.9831	0.027616329
50.0033	0.027753895
50.0236	0.029267118
50.0438	0.029232727
50.0641	0.029989339
50.0843	0.028166592
50.1046	0.027925852
50.1248	0.028544898
50.145	0.030298862
50.1653	0.02906077
50.1855	0.027857069
50.2058	0.029267118
50.226	0.027891461
50.2463	0.03002373
50.2665	0.028957595
50.2868	0.027581938
50.307	0.02882003
50.3273	0.027960243
50.3475	0.027857069
50.3678	0.028544898
50.388	0.027306806
50.4083	0.026171888
50.4285	0.028751247
50.4488	0.027478763
50.469	0.027719503
50.4893	0.028338549
50.5095	0.027581938
50.5298	0.029163944
50.55	0.029679816
50.5703	0.028269766
50.5905	0.027857069
50.6107	0.027857069
50.631	0.02644702
50.6512	0.028304158
50.6715	0.027685112
50.6917	0.02668776
50.712	0.027925852
50.7322	0.028957595
50.7525	0.026790934
50.7727	0.02882003
50.793	0.030436427
50.8132	0.028235375
50.8335	0.027306806
50.8537	0.027857069
50.874	0.028338549
50.8942	0.027444372
50.9145	0.028923204
50.9347	0.025999931
50.955	0.028613681
50.9752	0.028544898
50.9955	0.030230079
51.0157	0.027513155
51.0359	0.029026378
51.0562	0.030058122
51.0764	0.030333253
51.0967	0.029507858
51.1169	0.029370293
51.1372	0.028269766
51.1574	0.029954947
51.1777	0.030952299
51.1979	0.030711559
51.2182	0.031674519
51.2384	0.029989339
51.2587	0.031158648
51.2789	0.03311896
51.2992	0.032671871
51.3194	0.03074595
51.3397	0.032018434
51.3599	0.034047529
51.3802	0.037314716
51.4004	0.039275028
51.4207	0.043642742
51.4409	0.048251195
51.4611	0.054338481
51.4814	0.059600371
51.5016	0.061182378
51.5219	0.055439007
51.5421	0.049764419
51.5624	0.043505176
51.5826	0.046290883
51.6029	0.048423152
51.6231	0.045706228
51.6434	0.043573959
51.6636	0.041888778
51.6839	0.040306772
51.7041	0.036523713
51.7244	0.033703615
51.7446	0.032671871
51.7649	0.032912611
51.7851	0.031605736
51.8054	0.031674519
51.8256	0.031846477
51.8459	0.032706263
51.8661	0.030711559
51.8863	0.03050521
51.9066	0.029954947
51.9268	0.029129553
51.9471	0.02978299
51.9673	0.028716855
51.9876	0.028957595
52.0078	0.030230079
52.0281	0.028510507
52.0483	0.028957595
52.0686	0.029576641
52.0888	0.030677168
52.1091	0.029920556
52.1293	0.028888812
52.1496	0.027685112
52.1698	0.029473467
52.1901	0.030230079
52.2103	0.02954225
52.2306	0.030367645
52.2508	0.030161296
52.2711	0.02930151
52.2913	0.029439076
52.3116	0.031536954
52.3318	0.029370293
52.352	0.031468171
52.3723	0.029714207
52.3925	0.032947003
52.4128	0.03311896
52.433	0.032327957
52.4533	0.035320012
52.4735	0.040237989
52.4938	0.041372906
52.514	0.041682429
52.5343	0.045431097
52.5545	0.046772363
52.5748	0.045946968
52.595	0.045190357
52.6153	0.046634797
52.6355	0.049282938
52.6558	0.046359666
52.676	0.049042198
52.6963	0.050727379
52.7165	0.050383465
52.7368	0.050555422
52.757	0.04931733
52.7772	0.046634797
52.7975	0.047288235
52.8177	0.041544864
52.838	0.041372906
52.8582	0.042817347
52.8785	0.039034288
52.8987	0.040925818
52.919	0.038484025
52.9392	0.037968154
52.9595	0.034529009
52.9797	0.03693641
53	0.034460226
53.0202	0.034597792
53.0405	0.033015786
53.0607	0.032018434
53.081	0.032224782
53.1012	0.034597792
53.1215	0.033738006
53.1417	0.031949651
53.162	0.03384118
53.1822	0.035595144
53.2024	0.035870275
53.2227	0.035801493
53.2429	0.035526361
53.2632	0.037005193
53.2834	0.038862331
53.3037	0.03717715
53.3239	0.038243285
53.3442	0.037383499
53.3644	0.038999897
53.3847	0.040066032
53.4049	0.041888778
53.4252	0.039240637
53.4454	0.03906868
53.4657	0.036833236
53.4859	0.038621591
53.5062	0.035835884
53.5264	0.035698318
53.5467	0.034597792
53.5669	0.032121608
53.5872	0.034425835
53.6074	0.031949651
53.6276	0.032327957
53.6479	0.029714207
53.6681	0.029611033
53.6884	0.030608385
53.7086	0.029817381
53.7289	0.027650721
53.7491	0.028991987
53.7694	0.029989339
53.7896	0.028372941
53.8099	0.027753895
53.8301	0.029370293
53.8504	0.027960243
53.8706	0.02740998
53.8909	0.025793583
53.9111	0.026068714
53.9314	0.028648072
53.9516	0.027100457
53.9719	0.02740998
53.9921	0.030092513
54.0124	0.029439076
54.0326	0.028716855
54.0528	0.028372941
54.0731	0.028751247
54.0933	0.027925852
54.1136	0.029163944
54.1338	0.028785638
54.1541	0.029232727
54.1743	0.02620628
54.1946	0.029645424
54.2148	0.028304158
54.2351	0.027547546
54.2553	0.027788286
54.2756	0.028579289
54.2958	0.027238023
54.3161	0.027444372
54.3363	0.028097809
54.3566	0.028200984
54.3768	0.027616329
54.3971	0.02740998
54.4173	0.026618977
54.4376	0.029817381
54.4578	0.026997283
54.4781	0.026825326
54.4983	0.028888812
54.5185	0.028235375
54.5388	0.027616329
54.559	0.027341198
54.5793	0.027272415
54.5995	0.027513155
54.6198	0.028544898
54.64	0.026825326
54.6603	0.027994635
54.6805	0.028751247
54.7008	0.027994635
54.721	0.026618977
54.7413	0.029095161
54.7615	0.028682464
54.7818	0.030092513
54.802	0.030917908
54.8223	0.030642776
54.8425	0.028682464
54.8628	0.031777694
54.883	0.031984042
54.9033	0.034460226
54.9235	0.036730062
54.9437	0.039962857
54.964	0.042954913
54.9842	0.049042198
55.0045	0.049661244
55.0247	0.052240603
55.045	0.051415208
55.0652	0.046978712
55.0855	0.0462221
55.1057	0.047632149
55.126	0.045671837
55.1462	0.044812051
55.1665	0.044055439
55.1867	0.044330571
55.207	0.041476081
55.2272	0.04312687
55.2475	0.040925818
55.2677	0.040650686
55.288	0.037693022
55.3082	0.03597345
55.3285	0.03621419
55.3487	0.036145407
55.3689	0.034804141
55.3892	0.033566049
55.4094	0.03384118
55.4297	0.032912611
55.4499	0.032981394
55.4702	0.03384118
55.4904	0.032293565
55.5107	0.030367645
55.5309	0.030230079
55.5512	0.030883516
55.5714	0.029335901
55.5917	0.030986691
55.6119	0.031089865
55.6322	0.029851773
55.6524	0.029954947
55.6727	0.032465523
55.6929	0.031846477
55.7132	0.030849125
55.7334	0.031640128
55.7537	0.028648072
55.7739	0.032052825
55.7941	0.032499914
55.8144	0.033669223
55.8346	0.033634832
55.8549	0.029679816
55.8751	0.031743302
55.8954	0.030952299
55.9156	0.031089865
55.9359	0.029989339
55.9561	0.029679816
55.9764	0.028716855
55.9966	0.030092513
56.0169	0.031055473
56.0371	0.028613681
56.0574	0.031915259
56.0776	0.028372941
56.0979	0.028751247
56.1181	0.028510507
56.1384	0.028544898
56.1586	0.029404684
56.1789	0.028269766
56.1991	0.029163944
56.2194	0.028166592
56.2396	0.027719503
56.2598	0.028476115
56.2801	0.027994635
56.3003	0.027994635
56.3206	0.028682464
56.3408	0.028166592
56.3611	0.028476115
56.3813	0.028682464
56.4016	0.029989339
56.4218	0.028682464
56.4421	0.028476115
56.4623	0.029473467
56.4826	0.029611033
56.5028	0.027444372
56.5231	0.028716855
56.5433	0.027272415
56.5636	0.029198335
56.5838	0.028166592
56.6041	0.029095161
56.6243	0.02740998
56.6446	0.031296214
56.6648	0.028269766
56.685	0.028269766
56.7053	0.028991987
56.7255	0.029267118
56.7458	0.030058122
56.766	0.030814733
56.7863	0.030333253
56.8065	0.028200984
56.8268	0.029335901
56.847	0.030333253
56.8673	0.028785638
56.8875	0.029335901
56.9078	0.028716855
56.928	0.029473467
56.9483	0.032499914
56.9685	0.029404684
56.9888	0.030058122
57.009	0.031364996
57.0293	0.028854421
57.0495	0.029954947
57.0698	0.030814733
57.09	0.029989339
57.1102	0.028991987
57.1305	0.028888812
57.1507	0.029611033
57.171	0.032087217
57.1912	0.031674519
57.2115	0.030230079
57.2317	0.029851773
57.252	0.028923204
57.2722	0.031502562
57.2925	0.031055473
57.3127	0.030608385
57.333	0.029989339
57.3532	0.032671871
57.3735	0.031468171
57.3937	0.02978299
57.414	0.030952299
57.4342	0.033015786
57.4545	0.032671871
57.4747	0.032156
57.495	0.030849125
57.5152	0.032224782
57.5354	0.03239674
57.5557	0.033462874
57.5759	0.032465523
57.5962	0.032293565
57.6164	0.035388795
57.6367	0.035010489
57.6569	0.036661279
57.6772	0.035560752
57.6974	0.036626887
57.7177	0.037899371
57.7379	0.039171854
57.7582	0.038346459
57.7784	0.04051312
57.7987	0.04192317
57.8189	0.042782956
57.8392	0.04384909
57.8594	0.048457544
57.8797	0.050968119
57.8999	0.051002511
57.9202	0.05193108
57.9404	0.056058053
57.9606	0.060425766
57.9809	0.061354335
58.0011	0.065790831
58.0214	0.073528906
58.0416	0.079237886
58.0619	0.089383361
58.0821	0.098256354
58.1024	0.116139904
58.1226	0.136705988
58.1429	0.164563057
58.1631	0.211369811
58.1834	0.24280359
58.2036	0.26161571
58.2239	0.25755752
58.2441	0.240671321
58.2644	0.21872958
58.2846	0.19967672
58.3049	0.195790487
58.3251	0.198129105
58.3454	0.200605289
58.3656	0.194552395
58.3859	0.18251539
58.4061	0.164803797
58.4263	0.148330295
58.4466	0.131065791
58.4668	0.120163703
58.4871	0.106441517
58.5073	0.098737834
58.5276	0.096708739
58.5478	0.092650549
58.5681	0.089280187
58.5883	0.087801355
58.6086	0.09316642
58.6288	0.092134677
58.6491	0.095161124
58.6693	0.098187571
58.6896	0.103690202
58.7098	0.10699178
58.7301	0.110774839
58.7503	0.115899164
58.7706	0.118031434
58.7908	0.118031434
58.8111	0.115899164
58.8313	0.108470613
58.8515	0.102383327
58.8718	0.097018262
58.892	0.091240499
58.9123	0.088833098
58.9325	0.084774908
58.9528	0.078102968
58.973	0.075351653
58.9933	0.069883413
59.0135	0.063589779
59.0338	0.058362279
59.054	0.053994566
59.0743	0.05052103
59.0945	0.046325274
59.1148	0.045603054
59.135	0.043402002
59.1553	0.040685078
59.1755	0.039412594
59.1958	0.038449634
59.216	0.037280325
59.2363	0.037039585
59.2565	0.032775046
59.2767	0.035698318
59.297	0.034253878
59.3172	0.034357052
59.3375	0.033394092
59.3577	0.032912611
59.378	0.033290917
59.3982	0.030814733
59.4185	0.030883516
59.4387	0.032809437
59.459	0.033325309
59.4792	0.030092513
59.4995	0.030677168
59.5197	0.029473467
59.54	0.031502562
59.5602	0.029473467
59.5805	0.030780342
59.6007	0.029198335
59.621	0.030333253
59.6412	0.030126904
59.6615	0.030161296
59.6817	0.028923204
59.7019	0.030814733
59.7222	0.030058122
59.7424	0.029576641
59.7627	0.029714207
59.7829	0.030642776
59.8032	0.029611033
59.8234	0.029163944
59.8437	0.029748599
59.8639	0.028304158
59.8842	0.029679816
59.9044	0.029611033
59.9247	0.03026447
59.9449	0.029611033
59.9652	0.03026447
59.9854	0.028063418
60.0057	0.029370293
60.0259	0.027960243
60.0462	0.029370293
60.0664	0.027513155
60.0867	0.029611033
60.1069	0.029576641
60.1272	0.027857069
60.1474	0.028991987
60.1676	0.030814733
60.1879	0.032018434
60.2081	0.031743302
60.2284	0.030952299
60.2486	0.031055473
60.2689	0.030470819
60.2891	0.031880868
60.3094	0.033669223
60.3296	0.031640128
60.3499	0.031777694
60.3701	0.034288269
60.3904	0.034769749
60.4106	0.034597792
60.4309	0.032293565
60.4511	0.035320012
60.4714	0.034288269
60.4916	0.037280325
60.5119	0.035801493
60.5321	0.036764453
60.5524	0.032259174
60.5726	0.034219486
60.5928	0.033428483
60.6131	0.03311896
60.6333	0.032912611
60.6536	0.030402036
60.6738	0.032775046
60.6941	0.030780342
60.7143	0.030436427
60.7346	0.030711559
60.7548	0.029954947
60.7751	0.030608385
60.7953	0.028338549
60.8156	0.029576641
60.8358	0.028407332
60.8561	0.029335901
60.8763	0.029920556
60.8966	0.027788286
60.9168	0.027341198
60.9371	0.03050521
60.9573	0.028097809
60.9776	0.028166592
60.9978	0.028785638
61.018	0.029129553
61.0383	0.029335901
61.0585	0.028544898
61.0788	0.029576641
61.099	0.028029026
61.1193	0.028510507
61.1395	0.027341198
61.1598	0.025208928
61.18	0.028235375
61.2003	0.026481411
61.2205	0.027478763
61.2408	0.027857069
61.261	0.030677168
61.2813	0.029198335
61.3015	0.029679816
61.3218	0.029989339
61.342	0.028372941
61.3623	0.027203632
61.3825	0.029439076
61.4028	0.027375589
61.423	0.028579289
61.4432	0.028304158
61.4635	0.028888812
61.4837	0.028372941
61.504	0.029163944
61.5242	0.02930151
61.5445	0.029576641
61.5647	0.028957595
61.585	0.030711559
61.6052	0.029026378
61.6255	0.028338549
61.6457	0.028269766
61.666	0.027891461
61.6862	0.029679816
61.7065	0.028235375
61.7267	0.02906077
61.747	0.029473467
61.7672	0.028923204
61.7875	0.031536954
61.8077	0.030711559
61.828	0.029267118
61.8482	0.030298862
61.8684	0.031055473
61.8887	0.032087217
61.9089	0.031536954
61.9292	0.033187743
61.9494	0.034494618
61.9697	0.034494618
61.9899	0.038793548
62.0102	0.038380851
62.0304	0.040581903
62.0507	0.042782956
62.0709	0.042714173
62.0912	0.043092479
62.1114	0.041854387
62.1317	0.041888778
62.1519	0.039928466
62.1722	0.042095127
62.1924	0.040788252
62.2127	0.042335867
62.2329	0.042782956
62.2532	0.042989304
62.2734	0.040409946
62.2937	0.041785604
62.3139	0.041682429
62.3341	0.039859683
62.3544	0.038896722
62.3746	0.038346459
62.3949	0.036076624
62.4151	0.038208894
62.4354	0.037383499
62.4556	0.036179798
62.4759	0.03693641
62.4961	0.036661279
62.5164	0.035285621
62.5366	0.03621419
62.5569	0.033806789
62.5771	0.036867627
62.5974	0.037245933
62.6176	0.038071328
62.6379	0.039653334
62.6581	0.039997249
62.6784	0.041957561
62.6986	0.043230044
62.7189	0.044640094
62.7391	0.045121574
62.7593	0.047013103
62.7796	0.047150669
62.7998	0.046084534
62.8201	0.043058087
62.8403	0.041372906
62.8606	0.041613647
62.8808	0.040891426
62.9011	0.039137463
62.9213	0.039343811
62.9416	0.038105719
62.9618	0.03693641
62.9821	0.036351756
63.0023	0.035388795
63.0226	0.033978746
63.0428	0.033462874
63.0631	0.031674519
63.0833	0.031124256
63.1036	0.03074595
63.1238	0.029886164
63.1441	0.029954947
63.1643	0.028338549
63.1845	0.028854421
63.2048	0.029576641
63.225	0.029370293
63.2453	0.028132201
63.2655	0.028476115
63.2858	0.02882003
63.306	0.027478763
63.3263	0.028304158
63.3465	0.02882003
63.3668	0.028682464
63.387	0.026103106
63.4073	0.02954225
63.4275	0.026618977
63.4478	0.027616329
63.468	0.027341198
63.4883	0.028544898
63.5085	0.028132201
63.5288	0.026790934
63.549	0.026137497
63.5693	0.028166592
63.5895	0.028785638
63.6097	0.028510507
63.63	0.027753895
63.6502	0.025552842
63.6705	0.028372941
63.6907	0.027994635
63.711	0.028029026
63.7312	0.028132201
63.7515	0.028200984
63.7717	0.026756543
63.792	0.027857069
63.8122	0.027650721
63.8325	0.027478763
63.8527	0.028476115
63.873	0.02668776
63.8932	0.02740998
63.9135	0.029645424
63.9337	0.025621625
63.954	0.027444372
63.9742	0.026790934
63.9945	0.026997283
64.0147	0.025105754
64.035	0.027375589
64.0552	0.028097809
64.07539	0.027857069
64.0957	0.02740998
64.1159	0.027822678
64.1362	0.027857069
64.15639	0.026618977
64.1767	0.026618977
64.1969	0.025862365
64.21719	0.026618977
64.2374	0.027100457
64.2577	0.027788286
64.27789	0.026618977
64.29819	0.02644702
64.3184	0.027031675
64.3387	0.026790934
64.35889	0.026103106
64.3792	0.027375589
64.3994	0.027272415
64.41969	0.027753895
64.4399	0.028063418
64.4602	0.026962892
64.4804	0.028063418
64.5006	0.0269285
64.5209	0.027994635
64.5411	0.027513155
64.56139	0.026137497
64.5816	0.026137497
64.6019	0.025827974
64.62209	0.026584586
64.6424	0.027375589
64.6626	0.028407332
64.6829	0.027685112
64.70309	0.027685112
64.7234	0.027306806
64.7436	0.027513155
64.76389	0.026618977
64.7841	0.027925852
64.8044	0.026962892
64.82459	0.02620628
64.84489	0.026171888
64.8651	0.026756543
64.8854	0.027478763
64.90559	0.028235375
64.9258	0.02644702
64.9461	0.02668776
64.96629	0.027547546
64.9866	0.027719503
65.0068	0.026309454
65.0271	0.028097809
65.04729	0.025552842
65.0676	0.027753895
65.0878	0.027238023
65.10809	0.027788286
65.1283	0.026481411
65.1486	0.028132201
65.16879	0.027478763
65.18909	0.027650721
65.2093	0.027375589
65.2296	0.029404684
65.24979	0.028235375
65.2701	0.029232727
65.2903	0.029679816
65.31059	0.029576641
65.3308	0.03002373
65.351	0.028716855
65.3713	0.029611033
65.39149	0.029576641
65.4118	0.03074595
65.432	0.030058122
65.45229	0.03287822
65.4725	0.03263748
65.4928	0.03693641
65.51299	0.035904667
65.53329	0.041028992
65.5535	0.041579255
65.5738	0.039137463
65.59399	0.037933762
65.6143	0.03741789
65.6345	0.036179798
65.65479	0.034391443
65.675	0.032809437
65.6953	0.033875572
65.7155	0.033978746
65.73579	0.034013138
65.756	0.036042233
65.7762	0.032706263
65.79649	0.033738006
65.8167	0.02954225
65.837	0.031158648
65.85719	0.029163944
65.87749	0.029095161
65.8977	0.027925852
65.918	0.029954947
65.93819	0.027066066
65.9585	0.028923204
65.9787	0.028166592
65.99899	0.027306806
66.0192	0.02740998
66.0395	0.027134849
66.0597	0.02978299
66.07999	0.028544898
66.1002	0.026859717
66.1205	0.028269766
66.14069	0.028751247
66.161	0.026962892
66.1812	0.025793583
66.2015	0.027581938
66.22169	0.029370293
66.2419	0.026584586
66.2622	0.029267118
66.28239	0.025208928
66.3027	0.028166592
66.3229	0.026378237
66.34319	0.028235375
66.3634	0.027272415
66.3837	0.028716855
66.40389	0.027719503
66.42419	0.02716924
66.4444	0.026584586
66.4647	0.028544898
66.48489	0.026653369
66.5052	0.026997283
66.5254	0.02668776
66.5457	0.026412629
66.5659	0.027994635
66.5862	0.028544898
66.6064	0.027066066
66.62669	0.026240671
66.6469	0.026997283
66.6671	0.02740998
66.68739	0.026137497
66.7076	0.028304158
66.7279	0.027306806
66.74809	0.028682464
66.76839	0.026962892
66.7886	0.027306806
66.8089	0.028269766
66.82909	0.025862365
66.8494	0.0269285
66.8696	0.026378237
66.88989	0.025002579
66.9101	0.027685112
66.9304	0.028476115
66.9506	0.026997283
66.97089	0.026825326
66.9911	0.027513155
67.0114	0.028648072
67.03159	0.026103106
67.0519	0.026997283
67.0721	0.028716855
67.09229	0.029335901
67.11259	0.026997283
67.1328	0.029576641
67.1531	0.029163944
67.17329	0.028441724
67.1936	0.029267118
67.2138	0.028682464
67.23409	0.027100457
67.2543	0.029232727
67.2746	0.028235375
67.2948	0.03026447
67.31509	0.028854421
67.3353	0.030195687
67.3556	0.031124256
67.37579	0.029886164
67.3961	0.029439076
67.4163	0.029507858
67.4366	0.029129553
67.45679	0.028441724
67.4771	0.02978299
67.4973	0.029198335
67.51749	0.029335901
67.5378	0.029576641
67.558	0.029989339
67.57829	0.030402036
67.5985	0.029576641
67.6188	0.029989339
67.639	0.029095161
67.65929	0.029817381
67.6795	0.031089865
67.6998	0.031193039
67.71999	0.033772397
67.7403	0.031364996
67.7605	0.033909963
67.7808	0.033050177
67.80099	0.032465523
67.8213	0.032706263
67.8415	0.033875572
67.86179	0.034185095
67.882	0.034219486
67.9023	0.035595144
67.92249	0.035939058
67.94279	0.037280325
67.963	0.037039585
67.9832	0.036558104
68.00349	0.042439041
68.0237	0.040925818
68.044	0.04670358
68.06419	0.050624205
68.0845	0.056058053
68.1047	0.058981325
68.125	0.057708842
68.1452	0.058087148
68.1655	0.060632115
68.1857	0.056298793
68.20599	0.052550126
68.2262	0.051449599
68.2465	0.051621557
68.26669	0.051965471
68.28699	0.053031606
68.3072	0.054407263
68.3275	0.051759122
68.34769	0.057021013
68.368	0.050864945
68.3882	0.04955807
68.40839	0.05076177
68.4287	0.049970767
68.4489	0.05052103
68.46919	0.049764419
68.4894	0.050245899
68.5097	0.052687691
68.5299	0.054751178
68.55019	0.057227362
68.5704	0.059394023
68.5907	0.066788183
68.61089	0.070468068
68.6312	0.07624583
68.6514	0.079650583
68.6717	0.084087079
68.69189	0.089761667
68.7122	0.093097637
68.7324	0.101076452
68.75269	0.111565842
68.7729	0.114076418
68.7932	0.116415036
68.81339	0.11342298
68.8336	0.109915053
68.8539	0.106647866
68.8741	0.102005021
68.89439	0.100526189
68.9146	0.095745778
68.9349	0.09031193
68.95509	0.085187605
68.9754	0.085015648
68.9956	0.080269629
69.0159	0.074629432
69.03609	0.069195584
69.0564	0.06599718
69.0766	0.062317295
69.09689	0.055851704
69.1171	0.052618908
69.1374	0.047563366
69.15759	0.045534271
69.17789	0.041579255
69.1981	0.040306772
69.2184	0.040203597
69.23859	0.036489321
69.2588	0.036970802
69.2791	0.035285621
69.29929	0.033394092
69.3196	0.0333597
69.3398	0.034700966
69.3601	0.034460226
69.38029	0.031571345
69.4006	0.031708911
69.4208	0.032018434
69.44109	0.031227431
69.4613	0.028648072
69.4816	0.02930151
69.50179	0.029817381
69.52209	0.029817381
69.5423	0.030126904
69.5626	0.027581938
69.58279	0.029026378
69.6031	0.027857069
69.6233	0.029473467
69.64359	0.02716924
69.6638	0.028716855
69.684	0.028200984
69.7043	0.027891461
69.72449	0.02548406
69.7448	0.030298862
69.765	0.03026447
69.78529	0.02954225
69.8055	0.029198335
69.8258	0.027650721
69.84599	0.026825326
69.86629	0.027891461
69.8865	0.027478763
69.9068	0.027891461
69.92699	0.027203632
69.9473	0.029473467
69.9675	0.028923204
69.98779	0.027134849
70.008	0.027100457
70.0283	0.026068714
70.0485	0.0269285
70.06879	0.026722152
70.089	0.027822678
70.1093	0.026343846
70.12949	0.027925852
70.1497	0.027719503
70.17	0.02716924
70.19019	0.026275063
70.21049	0.026997283
70.2307	0.028304158
70.251	0.027478763
70.27119	0.027066066
70.2915	0.026550194
70.3117	0.026618977
70.33199	0.026378237
70.3522	0.02620628
70.3725	0.025277711
70.39269	0.027100457
70.41299	0.026653369
70.4332	0.026515803
70.4535	0.027272415
70.47369	0.026756543
70.494	0.02740998
70.5142	0.025415277
70.5345	0.0269285
70.5547	0.028579289
70.5749	0.027066066
70.5952	0.028716855
70.61539	0.028097809
70.6357	0.025690408
70.6559	0.026825326
70.67619	0.027203632
70.6964	0.025999931
70.7167	0.028991987
70.73689	0.0269285
70.75719	0.028166592
70.7774	0.026309454
70.7977	0.02644702
70.81789	0.028338549
70.8382	0.02644702
70.8584	0.027753895
70.87869	0.027857069
70.8989	0.027719503
70.9192	0.027788286
70.9394	0.027581938
70.95969	0.027100457
70.9799	0.028888812
71.0001	0.02644702
71.02039	0.027650721
71.0406	0.028441724
71.0609	0.028648072
71.08109	0.02740998
71.10139	0.02716924
71.1216	0.026825326
71.1419	0.027753895
71.16209	0.025140145
71.1824	0.027031675
71.2026	0.027547546
71.22289	0.027650721
71.2431	0.026343846
71.2634	0.026997283
71.2836	0.026343846
71.30389	0.024280359
71.3241	0.027444372
71.3444	0.027031675
71.36459	0.02596554
71.3849	0.026894109
71.4051	0.026894109
71.42529	0.024796231
71.44559	0.025208928
71.4658	0.025827974
71.4861	0.026618977
71.50629	0.027444372
71.5266	0.026962892
71.5468	0.026515803
71.56709	0.02620628
71.5873	0.02620628
71.6076	0.026618977
71.6278	0.026481411
71.64809	0.026550194
71.6683	0.024452316
71.6886	0.026240671
71.70879	0.026859717
71.7291	0.026790934
71.7493	0.0257248
71.7696	0.028304158
71.78979	0.027306806
71.8101	0.026343846
71.8303	0.027238023
71.85059	0.02716924
71.8708	0.027341198
71.891	0.026825326
71.91129	0.026343846
71.9315	0.025999931
71.9518	0.02596554
71.972	0.026584586
71.99229	0.026412629
72.0125	0.026997283
72.0328	0.027134849
72.05299	0.026756543
72.0733	0.027306806
72.0935	0.024761839
72.1138	0.027134849
72.134	0.025518451
72.1543	0.027581938
72.1745	0.027616329
72.19479	0.025002579
72.215	0.02668776
72.2353	0.027100457
72.25549	0.026584586
72.27579	0.027341198
72.296	0.026962892
72.31619	0.026275063
72.33649	0.025518451
72.3567	0.026756543
72.377	0.02716924
72.39719	0.027306806
72.4175	0.028888812
72.4377	0.026137497
72.45799	0.028200984
72.4782	0.026825326
72.4985	0.028441724
72.5187	0.027513155
72.53899	0.026481411
72.5592	0.027719503
72.5795	0.028682464
72.59969	0.027031675
72.62	0.028613681
72.6402	0.027616329
72.6605	0.028923204
72.68069	0.02978299
72.701	0.029439076
72.7212	0.028200984
72.74139	0.031640128
72.7617	0.029886164
72.7819	0.033566049
72.80219	0.033634832
72.8224	0.032190391
72.8427	0.036007841
72.8629	0.033394092
72.88319	0.033703615
72.9034	0.034563401
72.9237	0.033290917
72.94389	0.034597792
72.9642	0.035698318
72.9844	0.035595144
73.0047	0.034116312
73.02489	0.037383499
73.0452	0.036042233
73.0654	0.03741789
73.08569	0.036386147
73.1059	0.034460226
73.1262	0.033566049
73.14639	0.031502562
73.1666	0.033394092
73.1869	0.033015786
73.2071	0.031915259
73.22739	0.034219486
73.2476	0.033015786
73.2679	0.031605736
73.28809	0.031158648
73.3084	0.032671871
73.3286	0.032843828
73.3489	0.033015786
73.36909	0.030608385
73.3894	0.033875572
73.4096	0.034013138
73.42989	0.033290917
73.4501	0.035320012
73.4704	0.037245933
73.49059	0.038415242
73.51089	0.041166558
73.5311	0.0385872
73.5514	0.038277677
73.57159	0.039343811
73.5918	0.036111016
73.6121	0.037005193
73.63229	0.034735358
73.6526	0.035801493
73.6728	0.033978746
73.6931	0.034460226
73.71329	0.036764453
73.7336	0.033428483
73.7538	0.033875572
73.77409	0.03384118
73.7943	0.034632184
73.8146	0.031708911
73.83479	0.031227431
73.85509	0.030161296
73.8753	0.029267118
73.8956	0.031089865
73.91579	0.028029026
73.9361	0.02954225
73.9563	0.029920556
73.97659	0.027925852
73.9968	0.028338549
74.0171	0.027616329
74.0373	0.027444372
74.0575	0.02716924
74.0778	0.027238023
74.098	0.027891461
74.11829	0.026034323
74.1385	0.027444372
74.1588	0.028648072
74.17899	0.027685112
74.1993	0.026068714
74.2195	0.027891461
74.2398	0.028235375
74.25999	0.026481411
74.2803	0.026240671
74.3005	0.026859717
74.32079	0.027203632
74.341	0.027719503
74.3613	0.026653369
74.38149	0.026997283
74.40179	0.028785638
74.422	0.028785638
74.4423	0.027444372
74.46249	0.029989339
74.4827	0.028854421
74.503	0.028269766
74.52319	0.025518451
74.5435	0.027753895
74.5637	0.027100457
74.584	0.028132201
74.60419	0.027031675
74.6245	0.028407332
74.6447	0.027547546
74.66499	0.027513155
74.6852	0.028097809
74.7055	0.028304158
74.72569	0.028269766
74.74599	0.028372941
74.7662	0.027444372
74.7865	0.028957595
74.80669	0.02954225
74.827	0.028613681
74.8472	0.029679816
74.86749	0.030917908
74.8877	0.031571345
74.9079	0.029714207
74.9282	0.032121608
74.94839	0.031812085
74.9687	0.033187743
74.9889	0.032087217
75.00919	0.032706263
75.0294	0.031124256
75.0497	0.032362348
75.06989	0.029163944
75.09019	0.030814733
75.1104	0.030230079
75.1307	0.030470819
75.15089	0.029404684
75.1712	0.030126904
75.1914	0.03050521
75.21169	0.030711559
75.2319	0.030470819
75.2522	0.029954947
75.2724	0.031640128
75.29269	0.030849125
75.3129	0.030573993
75.3331	0.02978299
75.35339	0.031021082
75.3736	0.02978299
75.3939	0.028648072
75.41409	0.029920556
75.43439	0.028888812
75.4546	0.030952299
75.4749	0.029335901
75.49509	0.028063418
75.5154	0.030849125
75.5356	0.030195687
75.55589	0.03311896
75.5761	0.029576641
75.5964	0.030677168
75.6166	0.032121608
75.63689	0.029507858
75.6571	0.029886164
75.6774	0.030161296
75.69759	0.029920556
75.7179	0.02882003
75.7381	0.029026378
75.7584	0.029714207
75.77859	0.030333253
75.7988	0.028407332
75.8191	0.027375589
75.83929	0.029198335
75.8596	0.030436427
75.8798	0.028785638
75.90009	0.029095161
75.9203	0.028338549
75.9406	0.028338549
75.96079	0.027685112
75.98109	0.027650721
76.0013	0.027719503
76.0216	0.027685112
76.04179	0.027444372
76.0621	0.027341198
76.0823	0.029370293
76.1026	0.028579289
76.1228	0.028544898
76.1431	0.027581938
76.1633	0.027306806
76.18359	0.026343846
76.2038	0.028407332
76.224	0.02740998
76.24429	0.027031675
76.2645	0.027822678
76.2848	0.028991987
76.30499	0.0269285
76.32529	0.02644702
76.3455	0.026515803
76.3658	0.025587234
76.38599	0.027753895
76.4063	0.027066066
76.4265	0.027238023
76.44679	0.027994635
76.467	0.027203632
76.4873	0.028200984
76.5075	0.026722152
76.52779	0.026859717
76.548	0.027616329
76.5683	0.028407332
76.58849	0.02668776
76.6088	0.028304158
76.629	0.028372941
76.64919	0.029335901
76.66949	0.028476115
76.6897	0.02882003
76.71	0.02930151
76.73019	0.02882003
76.7505	0.028269766
76.7707	0.029232727
76.79099	0.028579289
76.8112	0.027616329
76.8315	0.028544898
76.8517	0.027341198
76.87199	0.026240671
76.8922	0.028200984
76.9125	0.028648072
76.93269	0.028097809
76.953	0.02978299
76.9732	0.028476115
76.9935	0.028132201
77.01369	0.030573993
77.034	0.027788286
77.0542	0.030952299
77.07439	0.031227431
77.0947	0.029026378
77.1149	0.031227431
77.13519	0.029163944
77.1554	0.031364996
77.1757	0.032259174
77.1959	0.030298862
77.21619	0.031330605
77.2364	0.032499914
77.2567	0.033909963
77.27689	0.034391443
77.2972	0.034185095
77.3174	0.036179798
77.3377	0.036489321
77.35789	0.036764453
77.3782	0.038174502
77.3984	0.04336761
77.41869	0.04312687
77.4389	0.049007807
77.4592	0.04883585
77.47939	0.050589813
77.4996	0.053719435
77.5199	0.057846408
77.5401	0.062489253
77.56039	0.059703546
77.5806	0.064518348
77.6009	0.068507755
77.62109	0.067751144
77.6414	0.068542147
77.6616	0.06909241
77.6819	0.067063315
77.7021	0.068438972
77.7224	0.067338446
77.7426	0.066513052
77.76289	0.061973381
77.7831	0.063280256
77.8034	0.061491901
77.82359	0.060976029
77.84389	0.05932524
77.8641	0.059359631
77.8844	0.056642707
77.90459	0.053444303
77.9249	0.051002511
77.9451	0.047700932
77.96529	0.048216804
77.9856	0.045465488
78.0058	0.043230044
78.02609	0.043952265
78.0463	0.039928466
78.0666	0.041372906
78.0868	0.040581903
78.10709	0.038793548
78.1273	0.036489321
78.1476	0.036111016
78.16779	0.036867627
78.1881	0.033462874
78.2083	0.035835884
78.2286	0.033531657
78.24879	0.034116312
78.2691	0.033703615
78.2893	0.033806789
78.30959	0.032121608
78.3298	0.031536954
78.3501	0.033703615
78.37029	0.03408192
78.3905	0.032740654
78.4108	0.031124256
78.431	0.032431131
78.45129	0.032775046
78.4715	0.033462874
78.4918	0.032568697
78.51199	0.032603088
78.5323	0.032259174
78.5525	0.033187743
78.5728	0.032327957
78.59299	0.034150703
78.6133	0.033497266
78.6335	0.035904667
78.65379	0.034941707
78.674	0.03669567
78.6943	0.038105719
78.71449	0.037589848
78.73479	0.035629535
78.755	0.040100423
78.7753	0.038380851
78.79549	0.040478729
78.8157	0.039653334
78.836	0.041441689
78.85619	0.041510472
78.8765	0.043402002
78.8967	0.045912577
78.917	0.048319978
78.93719	0.047597758
78.9575	0.048767067
78.9777	0.048904633
78.99799	0.050658596
79.0182	0.048698284
79.0385	0.049661244
79.05869	0.051552774
79.07899	0.049351721
79.0992	0.046187708
79.1195	0.045775011
79.13969	0.044880834
79.16	0.043883482
79.1802	0.044605702
79.20049	0.04336761
79.2207	0.042817347
79.2409	0.041441689
79.2612	0.039103071
79.28139	0.036111016
79.3017	0.039103071
79.3219	0.036007841
79.34219	0.037280325
79.3624	0.03645493
79.3827	0.034632184
79.40289	0.033806789
79.42319	0.032568697
79.4434	0.032156
79.4637	0.029679816
79.48389	0.030608385
79.5042	0.032431131
79.5244	0.03074595
79.54469	0.030849125
79.5649	0.030986691
79.5852	0.030573993
79.6054	0.031055473
79.62569	0.029267118
79.6459	0.03026447
79.6662	0.031605736
79.68639	0.031124256
79.7066	0.030642776
79.7269	0.031536954
79.74709	0.031158648
79.7674	0.031364996
79.7876	0.031640128
79.8079	0.029851773
79.82809	0.028132201
79.8484	0.029576641
79.8686	0.028716855
79.88889	0.030986691
79.9091	0.029679816
79.9294	0.029404684
79.94959	0.030436427
79.96989	0.029335901
79.9901	0.030436427
80.0104	0.029095161
80.03059	0.028785638
