10.0013	0.093505334
10.0216	0.091274188
10.0418	0.092085514
10.0621	0.094113829
10.0823	0.0936676
10.1026	0.094032696
10.1228	0.092288345
10.1431	0.09508742
10.1633	0.097115736
10.1835	0.090300596
10.2038	0.092734575
10.224	0.095249686
10.2443	0.092775141
10.2645	0.095411951
10.2848	0.100117642
10.305	0.092044947
10.3253	0.094925155
10.3455	0.095614782
10.3658	0.099103485
10.386	0.09662894
10.4063	0.097034603
10.4265	0.093464768
10.4468	0.093829865
10.467	0.096750639
10.4873	0.0973997
10.5075	0.094844023
10.5278	0.100442173
10.548	0.100117642
10.5683	0.101496897
10.5885	0.097845929
10.6087	0.095249686
10.629	0.101375198
10.6492	0.0973997
10.6695	0.100158209
10.6897	0.09959028
10.71	0.09849499
10.7302	0.098697822
10.7505	0.099184617
10.7707	0.093059105
10.791	0.100482739
10.8112	0.097318567
10.8315	0.100969535
10.8517	0.101375198
10.872	0.10222709
10.8922	0.103160115
10.9125	0.102632753
10.9327	0.097643098
10.953	0.098900653
10.9732	0.102145958
10.9935	0.099306316
11.0137	0.104336538
11.0339	0.10190256
11.0542	0.099549714
11.0744	0.101740295
11.0947	0.101375198
11.1149	0.099752546
11.1352	0.102308223
11.1554	0.10332238
11.1757	0.10190256
11.1959	0.105107298
11.2162	0.103930875
11.2364	0.104133707
11.2567	0.102470488
11.2769	0.100239341
11.2972	0.107338445
11.3174	0.102876151
11.3377	0.102511054
11.3579	0.10267332
11.3782	0.100726137
11.3984	0.103525212
11.4187	0.102389355
11.4389	0.106648818
11.4592	0.101294065
11.4794	0.101821427
11.4996	0.103687477
11.5199	0.10453937
11.5401	0.103281814
11.5604	0.105066732
11.5806	0.109163928
11.6009	0.109731857
11.6211	0.104985599
11.6414	0.107013914
11.6616	0.109204495
11.6819	0.106811083
11.7021	0.108312036
11.7224	0.102592187
11.7426	0.102348789
11.7629	0.105796925
11.7831	0.107906373
11.8034	0.105269563
11.8236	0.108474301
11.8439	0.105228997
11.8641	0.10672995
11.8844	0.107460144
11.9046	0.104295972
11.9248	0.103728044
11.9451	0.105756359
11.9653	0.106445986
11.9856	0.106324287
12.0058	0.104214839
12.0261	0.106973348
12.0463	0.105431828
12.0666	0.108636567
12.0868	0.105391262
12.1071	0.107987506
12.1273	0.101821427
12.1476	0.106932782
12.1678	0.104579936
12.1881	0.106445986
12.2083	0.107622409
12.2286	0.105391262
12.2488	0.104214839
12.2691	0.108555434
12.2893	0.106202588
12.3096	0.103281814
12.3298	0.107297878
12.35	0.104255406
12.3703	0.104904466
12.3905	0.106080889
12.4108	0.103038416
12.431	0.105756359
12.4513	0.105147864
12.4715	0.10672995
12.4918	0.103403513
12.512	0.101375198
12.5323	0.106932782
12.5525	0.100523305
12.5728	0.099103485
12.593	0.100969535
12.6133	0.105594094
12.6335	0.100928968
12.6538	0.100077076
12.674	0.101537463
12.6943	0.09926575
12.7145	0.098413857
12.7348	0.09959028
12.755	0.101496897
12.7752	0.102957284
12.7955	0.097967628
12.8157	0.098981786
12.836	0.098900653
12.8562	0.095290252
12.8765	0.100077076
12.8967	0.099955377
12.917	0.09553365
12.9372	0.103160115
12.9575	0.103728044
12.9777	0.095898747
12.998	0.095898747
13.0182	0.097156302
13.0385	0.098089327
13.0587	0.093018539
13.079	0.094073263
13.0992	0.091152489
13.1195	0.093140238
13.1397	0.093951564
13.16	0.092491177
13.1802	0.090381729
13.2004	0.091679851
13.2207	0.093910998
13.2409	0.089813801
13.2612	0.091314754
13.2814	0.088312847
13.3017	0.085351507
13.3219	0.089894933
13.3422	0.088961908
13.3624	0.089124173
13.3827	0.088272281
13.4029	0.089124173
13.4232	0.084418482
13.4434	0.087055292
13.4637	0.084945844
13.4839	0.087379822
13.5042	0.081822238
13.5244	0.088028883
13.5447	0.085594905
13.5649	0.082674131
13.5852	0.081943937
13.6054	0.079631658
13.6257	0.081294876
13.6459	0.079834489
13.6661	0.080645816
13.6864	0.082146769
13.7066	0.076873149
13.7269	0.081457142
13.7471	0.077075981
13.7674	0.075128798
13.7876	0.079793923
13.8079	0.077075981
13.8281	0.07411464
13.8484	0.073587278
13.8686	0.074439171
13.8889	0.074601436
13.9091	0.073506146
13.9294	0.071315565
13.9496	0.077765608
13.9699	0.073262748
13.9901	0.069530648
14.0104	0.071964626
14.0306	0.069855178
14.0509	0.070220275
14.0711	0.066853272
14.0913	0.073952375
14.1116	0.069327816
14.1318	0.066853272
14.1521	0.066772139
14.1723	0.07005801
14.1926	0.068800454
14.2128	0.068273092
14.2331	0.067502333
14.2533	0.065149487
14.2736	0.065676849
14.2938	0.062269279
14.3141	0.063324003
14.3343	0.065717415
14.3546	0.061336254
14.3748	0.060768326
14.3951	0.060322096
14.4153	0.06259381
14.4356	0.06632591
14.4558	0.058902276
14.4761	0.056589996
14.4963	0.061336254
14.5165	0.061214555
14.5368	0.060768326
14.557	0.055940935
14.5773	0.060484362
14.5975	0.057969251
14.6178	0.056508864
14.638	0.06182305
14.6583	0.05577867
14.6785	0.05764472
14.6988	0.053790921
14.719	0.059591903
14.7393	0.056427731
14.7595	0.060038132
14.7798	0.057725853
14.8	0.055129609
14.8203	0.057604154
14.8405	0.055616405
14.8608	0.057441889
14.881	0.054237151
14.9013	0.055210742
14.9215	0.054764513
14.9417	0.054115452
14.962	0.056508864
14.9822	0.062066448
15.0025	0.062634376
15.0227	0.072735386
15.043	0.081903371
15.0632	0.098454424
15.0835	0.123402702
15.1037	0.157275567
15.124	0.202101335
15.1442	0.229402458
15.1645	0.220680703
15.1847	0.184211594
15.205	0.132530121
15.2252	0.094276094
15.2455	0.064297594
15.2657	0.054926778
15.286	0.048192771
15.3062	0.047584277
15.3265	0.046813517
15.3467	0.044866334
15.367	0.047381445
15.3872	0.043973875
15.4074	0.044866334
15.4277	0.046651251
15.4479	0.043365381
15.4682	0.04194556
15.4884	0.04194556
15.5087	0.04194556
15.5289	0.04227009
15.5492	0.042594621
15.5694	0.041499331
15.5897	0.037726664
15.6099	0.039349316
15.6302	0.03557665
15.6504	0.038578557
15.6707	0.036793639
15.6909	0.035657783
15.7112	0.039795546
15.7314	0.036874772
15.7517	0.038375725
15.7719	0.034643625
15.7922	0.038781388
15.8124	0.03711817
15.8326	0.034684191
15.8529	0.03448136
15.8731	0.034237962
15.8934	0.033548335
15.9136	0.03293984
15.9339	0.036834206
15.9541	0.034684191
15.9744	0.033304937
15.9946	0.033223804
16.0149	0.030789826
16.0351	0.034846457
16.0554	0.031195489
16.0756	0.031357754
16.0959	0.033102105
16.1161	0.028802077
16.1364	0.032737009
16.1566	0.030870959
16.1769	0.029937934
16.1971	0.031398321
16.2174	0.032209647
16.2376	0.029775668
16.2578	0.027747353
16.2781	0.027828486
16.2983	0.029491704
16.3186	0.029532271
16.3388	0.028518113
16.3591	0.031398321
16.3793	0.028355848
16.3996	0.026936027
16.4198	0.025840737
16.4401	0.025191676
16.4603	0.026611496
16.4806	0.023366192
16.5008	0.025232242
16.5211	0.028761511
16.5413	0.024948278
16.5616	0.023690722
16.5818	0.024502049
16.6021	0.023731289
16.6223	0.02766622
16.6426	0.026043568
16.6628	0.023163361
16.683	0.022149203
16.7033	0.023812421
16.7235	0.021256744
16.7438	0.023569024
16.764	0.027098292
16.7843	0.023771855
16.8045	0.022960529
16.8248	0.021865239
16.845	0.022595432
16.8653	0.021986938
16.8855	0.022717131
16.9058	0.023528457
16.926	0.019309561
16.9463	0.021216178
16.9665	0.021865239
16.9868	0.020364285
17.007	0.02174354
17.0273	0.019471827
17.0475	0.020932214
17.0678	0.019674658
17.088	0.020242587
17.1082	0.019999189
17.1285	0.020607683
17.1487	0.020080321
17.169	0.021946371
17.1892	0.018660501
17.2095	0.018701067
17.2297	0.017402945
17.25	0.018822766
17.2702	0.021459576
17.2905	0.019268995
17.3107	0.019999189
17.331	0.018579368
17.3512	0.021905805
17.3715	0.0187822
17.3917	0.019634092
17.412	0.018822766
17.4322	0.02064825
17.4525	0.015415196
17.4727	0.016632185
17.493	0.015739727
17.5132	0.017078415
17.5335	0.01724068
17.5537	0.015861426
17.5739	0.016632185
17.5942	0.017159547
17.6144	0.013630279
17.6347	0.016510486
17.6549	0.01646992
17.6752	0.016104823
17.6954	0.017362379
17.7157	0.017727476
17.7359	0.01724068
17.7562	0.015334064
17.7764	0.01350858
17.7967	0.016023691
17.8169	0.013670845
17.8372	0.014238773
17.8574	0.015293497
17.8777	0.012940651
17.8979	0.015861426
17.9182	0.015496329
17.9384	0.0149284
17.9587	0.014806702
17.9789	0.013995375
17.9991	0.011845361
18.0194	0.013305748
18.0396	0.016064257
18.0599	0.013873677
18.0801	0.013305748
18.1004	0.015577461
18.1206	0.013021784
18.1409	0.013630279
18.1611	0.012534988
18.1814	0.013589712
18.2016	0.012210458
18.2219	0.009086852
18.2421	0.014157641
18.2624	0.013102917
18.2826	0.01273782
18.3029	0.012453856
18.3231	0.012372723
18.3434	0.013224616
18.3636	0.010831204
18.3839	0.013102917
18.4041	0.011115168
18.4243	0.011723662
18.4446	0.012332157
18.4648	0.011804795
18.4851	0.01306235
18.5053	0.010303842
18.5256	0.010993469
18.5458	0.009614214
18.5661	0.012818953
18.5863	0.012494422
18.6066	0.011317999
18.6268	0.010790637
18.6471	0.010182143
18.6673	0.010263275
18.6876	0.009817046
18.7078	0.012129325
18.7281	0.011764229
18.7483	0.009817046
18.7686	0.009614214
18.7888	0.010952903
18.8091	0.010141576
18.8293	0.010384974
18.8495	0.010182143
18.8698	0.011236867
18.89	0.009573648
18.9103	0.009817046
18.9305	0.010141576
18.9508	0.009735913
18.971	0.010952903
18.9913	0.009898179
19.0115	0.01010101
19.0318	0.008884021
19.052	0.010425541
19.0723	0.009046286
19.0925	0.010384974
19.1128	0.009249118
19.133	0.009208551
19.1533	0.006652874
19.1735	0.009614214
19.1938	0.00900572
19.214	0.006166078
19.2343	0.011764229
19.2545	0.008600057
19.2748	0.009249118
19.295	0.010425541
19.3152	0.007383068
19.3355	0.009046286
19.3557	0.006896272
19.376	0.011520831
19.3962	0.008924587
19.4165	0.009695347
19.4367	0.00900572
19.457	0.009370817
19.4772	0.007099103
19.4975	0.011317999
19.5177	0.009249118
19.538	0.008275526
19.5582	0.007869863
19.5785	0.007950996
19.5987	0.009046286
19.619	0.010384974
19.6392	0.008721756
19.6595	0.004624559
19.6797	0.010384974
19.7	0.007017971
19.7202	0.008600057
19.7404	0.006409476
19.7607	0.006166078
19.7809	0.009370817
19.8012	0.006084946
19.8214	0.007180236
19.8417	0.007423634
19.8619	0.006855706
19.8822	0.008356659
19.9024	0.006450043
19.9227	0.006977405
19.9429	0.006328344
19.9632	0.008032129
19.9834	0.008194394
20.0037	0.008275526
20.0239	0.005841548
20.0442	0.006977405
20.0644	0.004705691
20.0847	0.006652874
20.1049	0.006977405
20.1252	0.005314186
20.1454	0.008924587
20.1656	0.004705691
20.1859	0.006084946
20.2061	0.00713967
20.2264	0.005679283
20.2466	0.005760415
20.2669	0.008316093
20.2871	0.004867957
20.3074	0.005800982
20.3276	0.007626465
20.3479	0.004989656
20.3681	0.004056631
20.3884	0.004989656
20.4086	0.006571742
20.4289	0.004665125
20.4491	0.005760415
20.4694	0.007423634
20.4896	0.00713967
20.5099	0.004665125
20.5301	0.004137763
20.5504	0.005354752
20.5706	0.005557584
20.5908	0.006571742
20.6111	0.005882114
20.6313	0.006571742
20.6516	0.007180236
20.6718	0.004665125
20.6921	0.005476451
20.7123	0.008153827
20.7326	0.003813233
20.7528	0.005233053
20.7731	0.004583993
20.7933	0.00559815
20.8136	0.004746258
20.8338	0.003164172
20.8541	0.004705691
20.8743	0.00669344
20.8946	0.005800982
20.9148	0.004867957
20.9351	0.004056631
20.9553	0.005111355
20.9756	0.004016064
20.9958	0.005841548
21.016	0.004665125
21.0363	0.004705691
21.0565	0.002433978
21.0768	0.005314186
21.097	0.003204738
21.1173	0.006328344
21.1375	0.00482739
21.1578	0.003894365
21.178	0.00604438
21.1983	0.006936838
21.2185	0.003488702
21.2388	0.004097197
21.259	0.005841548
21.2793	0.005719849
21.2995	0.005800982
21.3198	0.003975498
21.34	0.004705691
21.3603	0.004908523
21.3805	0.003245304
21.4008	0.005476451
21.421	0.004867957
21.4413	0.004421727
21.4615	0.005882114
21.4817	0.003326437
21.502	0.004705691
21.5222	0.006328344
21.5425	0.004097197
21.5627	0.007504767
21.583	0.006166078
21.6032	0.004259462
21.6235	0.005435885
21.6437	0.005476451
21.664	0.004097197
21.6842	0.003569835
21.7045	0.00296134
21.7247	0.003245304
21.745	0.00527362
21.7652	0.003367003
21.7855	0.004867957
21.8057	0.003650968
21.826	0.004178329
21.8462	0.004300028
21.8665	0.004543426
21.8867	0.005476451
21.9069	0.005314186
21.9272	0.004583993
21.9474	0.003448136
21.9677	0.005151921
21.9879	0.004300028
22.0082	0.007058537
22.0284	0.007301935
22.0487	0.006409476
22.0689	0.008884021
22.0892	0.006936838
22.1094	0.007423634
22.1297	0.006166078
22.1499	0.006896272
22.1702	0.007788731
22.1904	0.008194394
22.2107	0.008884021
22.2309	0.009614214
22.2512	0.008965154
22.2714	0.01087177
22.2917	0.010587806
22.3119	0.009411383
22.3321	0.009086852
22.3524	0.009208551
22.3726	0.011317999
22.3929	0.012048193
22.4131	0.012251024
22.4334	0.0149284
22.4536	0.014238773
22.4739	0.016267089
22.4941	0.016835017
22.5144	0.018538802
22.5346	0.019187863
22.5549	0.018457669
22.5751	0.025069977
22.5954	0.022027504
22.6156	0.028761511
22.6359	0.036955904
22.6561	0.049369194
22.6764	0.071680662
22.6966	0.102186524
22.7169	0.143929252
22.7371	0.199991887
22.7573	0.302584074
22.7776	0.437304775
22.7978	0.593403919
22.8181	0.660378889
22.8383	0.61502576
22.8586	0.519086447
22.8788	0.42022636
22.8991	0.297634984
22.9193	0.187903128
22.9396	0.118331914
22.9598	0.076589185
22.9801	0.058618312
23.0003	0.045839925
23.0206	0.042513488
23.0408	0.04458237
23.0611	0.037402134
23.0813	0.03667194
23.1016	0.03898422
23.1218	0.039065352
23.1421	0.037807797
23.1623	0.037970062
23.1826	0.034116263
23.2028	0.032371912
23.223	0.026489798
23.2433	0.025597339
23.2635	0.022352034
23.2838	0.017078415
23.304	0.013589712
23.3243	0.010952903
23.3445	0.014117074
23.3648	0.011277433
23.385	0.01427934
23.4053	0.011561397
23.4255	0.011845361
23.4458	0.011601963
23.466	0.010425541
23.4863	0.010263275
23.5065	0.011277433
23.5268	0.010060444
23.547	0.011764229
23.5673	0.011520831
23.5875	0.009817046
23.6078	0.013143483
23.628	0.011926494
23.6482	0.015131232
23.6685	0.012129325
23.6887	0.013995375
23.709	0.012859519
23.7292	0.014238773
23.7495	0.017281246
23.7697	0.016713318
23.79	0.019552959
23.8102	0.017646343
23.8305	0.019999189
23.8507	0.021419009
23.871	0.020404852
23.8912	0.020039755
23.9115	0.020526551
23.9317	0.020120888
23.952	0.021986938
23.9722	0.020039755
23.9925	0.02206807
24.0127	0.0225143
24.033	0.020323719
24.0532	0.020932214
24.0734	0.019918056
24.0937	0.022311468
24.1139	0.019309561
24.1342	0.02064825
24.1544	0.017159547
24.1747	0.016551053
24.1949	0.016794451
24.2152	0.018498235
24.2354	0.016307655
24.2557	0.012900085
24.2759	0.014238773
24.2962	0.013792544
24.3164	0.01273782
24.3367	0.012818953
24.3569	0.01273782
24.3772	0.013427447
24.3974	0.011885928
24.4177	0.014806702
24.4379	0.010019877
24.4582	0.010831204
24.4784	0.009735913
24.4986	0.007667032
24.5189	0.010182143
24.5391	0.006450043
24.5594	0.009614214
24.5796	0.008194394
24.5999	0.009614214
24.6201	0.006774573
24.6404	0.005435885
24.6606	0.008884021
24.6809	0.007829297
24.7011	0.007017971
24.7214	0.005557584
24.7416	0.008113261
24.7619	0.004867957
24.7821	0.006409476
24.8024	0.007667032
24.8226	0.004016064
24.8429	0.006247211
24.8631	0.005070788
24.8834	0.005435885
24.9036	0.006287777
24.9238	0.007383068
24.9441	0.005070788
24.9643	0.006003813
24.9846	0.005435885
25.0048	0.005638716
25.0251	0.00636891
25.0453	0.003569835
25.0656	0.005719849
25.0858	0.005800982
25.1061	0.006450043
25.1263	0.004705691
25.1466	0.00527362
25.1668	0.006734007
25.1871	0.006774573
25.2073	0.006896272
25.2276	0.004340595
25.2478	0.003448136
25.2681	0.00482739
25.2883	0.003042473
25.3086	0.005354752
25.3288	0.004340595
25.3491	0.005030222
25.3693	0.005922681
25.3895	0.003448136
25.4098	0.004016064
25.43	0.006774573
25.4503	0.004056631
25.4705	0.003123606
25.4908	0.004137763
25.511	0.005151921
25.5313	0.004300028
25.5515	0.003326437
25.5718	0.006855706
25.592	0.005233053
25.6123	0.003691534
25.6325	0.003975498
25.6528	0.003975498
25.673	0.003285871
25.6933	0.004421727
25.7135	0.004097197
25.7338	0.005030222
25.754	0.002677376
25.7743	0.003772666
25.7945	0.003853799
25.8147	0.002920774
25.835	0.005233053
25.8552	0.003853799
25.8755	0.003123606
25.8957	0.006328344
25.916	0.004462294
25.9362	0.006166078
25.9565	0.005963247
25.9767	0.004178329
25.997	0.005638716
26.0172	0.007707598
26.0375	0.003650968
26.0577	0.004462294
26.078	0.004989656
26.0982	0.004097197
26.1185	0.004381161
26.1387	0.004218896
26.159	0.003448136
26.1792	0.005354752
26.1995	0.006206645
26.2197	0.00450286
26.2399	0.002758509
26.2602	0.003894365
26.2804	0.004381161
26.3007	0.002312279
26.3209	0.003610401
26.3412	0.003529269
26.3614	0.002190581
26.3817	0.00263681
26.4019	0.004340595
26.4222	0.002677376
26.4424	0.003204738
26.4627	0.003488702
26.4829	0.00340757
26.5032	0.002920774
26.5234	0.003975498
26.5437	0.004867957
26.5639	0.005030222
26.5842	0.003650968
26.6044	0.004624559
26.6247	0.004056631
26.6449	0.003083039
26.6651	0.005233053
26.6854	0.004543426
26.7056	0.002393412
26.7259	0.002555677
26.7461	0.003488702
26.7664	0.004786824
26.7866	0.002880208
26.8069	0.005233053
26.8271	0.004746258
26.8474	0.0037321
26.8676	0.004137763
26.8879	0.004462294
26.9081	0.005151921
26.9284	0.005638716
26.9486	0.00340757
26.9689	0.004381161
26.9891	0.004989656
27.0094	0.004097197
27.0296	0.006612308
27.0499	0.005070788
27.0701	0.00263681
27.0904	0.004178329
27.1106	0.005435885
27.1308	0.004908523
27.1511	0.006125512
27.1713	0.006206645
27.1916	0.006003813
27.2118	0.005070788
27.2321	0.008478358
27.2523	0.004949089
27.2726	0.005638716
27.2928	0.005922681
27.3131	0.008397225
27.3333	0.006977405
27.3536	0.006490609
27.3738	0.006571742
27.3941	0.009695347
27.4143	0.010466107
27.4346	0.012778386
27.4548	0.012616121
27.4751	0.01833597
27.4953	0.015901992
27.5156	0.023893554
27.5358	0.027138858
27.556	0.032209647
27.5763	0.03261531
27.5965	0.033670034
27.6168	0.031317188
27.637	0.031803984
27.6573	0.030830392
27.6775	0.031682285
27.6978	0.030586994
27.718	0.033142672
27.7383	0.031195489
27.7585	0.03821346
27.7788	0.037280435
27.799	0.038091761
27.8193	0.037767231
27.8395	0.035414385
27.8598	0.030384163
27.88	0.024988844
27.9003	0.02206807
27.9205	0.017118981
27.9408	0.012534988
27.961	0.010831204
27.9812	0.009533082
28.0015	0.010628372
28.0217	0.006855706
28.042	0.003894365
28.0622	0.007180236
28.0825	0.006612308
28.1027	0.005800982
28.123	0.007220802
28.1432	0.004705691
28.1635	0.005435885
28.1837	0.005517018
28.204	0.005111355
28.2242	0.003813233
28.2445	0.003083039
28.2647	0.003691534
28.285	0.005070788
28.3052	0.0037321
28.3255	0.005841548
28.3457	0.004583993
28.366	0.004989656
28.3862	0.003448136
28.4064	0.003650968
28.4267	0.004908523
28.4469	0.004259462
28.4672	0.004381161
28.4874	0.005030222
28.5077	0.004705691
28.5279	0.000365097
28.5482	0.005030222
28.5684	0.004543426
28.5887	0.003569835
28.6089	0.004137763
28.6292	0.003894365
28.6494	0.004056631
28.6697	0.003529269
28.6899	0.002433978
28.7102	0.002555677
28.7304	0.004300028
28.7507	0.004056631
28.7709	0.005070788
28.7912	0.003488702
28.8114	0.003934932
28.8316	0.004665125
28.8519	0.003488702
28.8721	0.002799075
28.8924	0.004178329
28.9126	0.004218896
28.9329	0.003813233
28.9531	0.003204738
28.9734	0.003164172
28.9936	0.003326437
29.0139	0.003326437
29.0341	0.00296134
29.0544	0.003853799
29.0746	0.003650968
29.0949	0.003326437
29.1151	0.005719849
29.1354	0.004543426
29.1556	0.006084946
29.1759	0.005841548
29.1961	0.00482739
29.2164	0.005638716
29.2366	0.00559815
29.2569	0.004259462
29.2771	0.004218896
29.2973	0.002433978
29.3176	0.005882114
29.3378	0.004016064
29.3581	0.004867957
29.3783	0.005070788
29.3986	0.003691534
29.4188	0.005314186
29.4391	0.005192487
29.4593	0.005679283
29.4796	0.005882114
29.4998	0.005760415
29.5201	0.007626465
29.5403	0.003650968
29.5606	0.006166078
29.5808	0.006409476
29.6011	0.006166078
29.6213	0.004705691
29.6416	0.005111355
29.6618	0.00636891
29.6821	0.005679283
29.7023	0.006206645
29.7225	0.005719849
29.7428	0.00713967
29.763	0.004867957
29.7833	0.006287777
29.8035	0.006084946
29.8238	0.003934932
29.844	0.004137763
29.8643	0.004137763
29.8845	0.005679283
29.9048	0.00604438
29.925	0.005233053
29.9453	0.005151921
29.9655	0.005030222
29.9858	0.004300028
30.006	0.005922681
30.0263	0.005151921
30.0465	0.00482739
30.0668	0.004340595
30.087	0.004705691
30.1073	0.003367003
30.1275	0.004786824
30.1477	0.004137763
30.168	0.003610401
30.1882	0.005354752
30.2085	0.006409476
30.2287	0.006287777
30.249	0.006287777
30.2692	0.004462294
30.2895	0.003772666
30.3097	0.006571742
30.33	0.005111355
30.3502	0.004340595
30.3705	0.005557584
30.3907	0.005354752
30.411	0.008032129
30.4312	0.006612308
30.4515	0.009208551
30.4717	0.013427447
30.492	0.017200114
30.5122	0.02657093
30.5325	0.034887023
30.5527	0.051924871
30.5729	0.065798548
30.5932	0.071518397
30.6134	0.068354225
30.6337	0.053709789
30.6539	0.047178613
30.6742	0.041580463
30.6944	0.030262464
30.7147	0.020039755
30.7349	0.013751978
30.7552	0.012900085
30.7754	0.006490609
30.7957	0.004300028
30.8159	0.008316093
30.8362	0.007545333
30.8564	0.004949089
30.8767	0.007017971
30.8969	0.00604438
30.9172	0.003975498
30.9374	0.004259462
30.9577	0.005070788
30.9779	0.003934932
30.9982	0.00450286
31.0184	0.003488702
31.0386	0.002799075
31.0589	0.005963247
31.0791	0.004867957
31.0994	0.00450286
31.1196	0.003772666
31.1399	0.004137763
31.1601	0.003083039
31.1804	0.002839641
31.2006	0.004746258
31.2209	0.006206645
31.2411	0.003894365
31.2614	0.004137763
31.2816	0.003813233
31.3019	0.005679283
31.3221	0.003934932
31.3424	0.005679283
31.3626	0.005070788
31.3829	0.006247211
31.4031	0.005314186
31.4234	0.007342501
31.4436	0.007950996
31.4638	0.006815139
31.4841	0.004949089
31.5043	0.005395319
31.5246	0.007504767
31.5448	0.007748164
31.5651	0.008762322
31.5853	0.010222709
31.6056	0.009614214
31.6258	0.011074601
31.6461	0.008721756
31.6663	0.009492516
31.6866	0.011561397
31.7068	0.012169892
31.7271	0.011723662
31.7473	0.010506673
31.7676	0.011845361
31.7878	0.012981218
31.8081	0.010263275
31.8283	0.014319906
31.8486	0.01383311
31.8688	0.011520831
31.889	0.013224616
31.9093	0.012291591
31.9295	0.012940651
31.9498	0.014198207
31.97	0.012818953
31.9903	0.014725569
32.0105	0.013265182
32.0308	0.017808608
32.051	0.016388787
32.0713	0.016307655
32.0915	0.017646343
32.1118	0.02020202
32.132	0.019836923
32.1523	0.024502049
32.1725	0.026327532
32.1928	0.025394507
32.213	0.027057726
32.2333	0.031722851
32.2535	0.035982313
32.2738	0.03590118
32.294	0.043324814
32.3142	0.049450327
32.3345	0.055535272
32.3547	0.067218368
32.375	0.079712791
32.3952	0.096101578
32.4155	0.123402702
32.4357	0.155450083
32.456	0.20940327
32.4762	0.272686706
32.4965	0.335402215
32.5167	0.419658432
32.537	0.462334185
32.5572	0.467932335
32.5775	0.474828607
32.5977	0.478033346
32.618	0.492840047
32.6382	0.490365502
32.6585	0.512433573
32.6787	0.541763012
32.699	0.573850959
32.7192	0.638229686
32.7395	0.699809338
32.7597	0.733195408
32.7799	0.723500061
32.8002	0.673319541
32.8204	0.601152083
32.8407	0.512960935
32.8609	0.420307493
32.8812	0.339012616
32.9014	0.257920571
32.9217	0.186158777
32.9419	0.139264127
32.9622	0.09817046
32.9824	0.081335443
33.0027	0.064865523
33.0229	0.056184333
33.0432	0.053872054
33.0634	0.044460671
33.0837	0.041783295
33.1039	0.031803984
33.1242	0.030952091
33.1444	0.028234149
33.1647	0.023812421
33.1849	0.025516206
33.2051	0.02174354
33.2254	0.019390694
33.2456	0.019471827
33.2659	0.017524644
33.2861	0.016672752
33.3064	0.013386881
33.3266	0.016104823
33.3469	0.014360472
33.3671	0.013346315
33.3874	0.014076508
33.4076	0.013914243
33.4279	0.012656687
33.4481	0.010993469
33.4684	0.010790637
33.4886	0.011236867
33.5089	0.012372723
33.5291	0.013873677
33.5494	0.011885928
33.5696	0.011399132
33.5899	0.011317999
33.6101	0.013792544
33.6303	0.013346315
33.6506	0.015009533
33.6708	0.018214271
33.6911	0.018092572
33.7113	0.017443511
33.7316	0.016916149
33.7518	0.015618028
33.7721	0.017605777
33.7923	0.012778386
33.8126	0.013995375
33.8328	0.012251024
33.8531	0.011155734
33.8733	0.013792544
33.8936	0.013468013
33.9138	0.010952903
33.9341	0.014482171
33.9543	0.011236867
33.9746	0.012169892
33.9948	0.013265182
34.0151	0.013184049
34.0353	0.014644436
34.0555	0.011601963
34.0758	0.015171798
34.096	0.011926494
34.1163	0.010506673
34.1365	0.014847268
34.1568	0.015334064
34.177	0.013386881
34.1973	0.012332157
34.2175	0.012494422
34.2378	0.012656687
34.258	0.013954809
34.2783	0.012169892
34.2985	0.01241329
34.3188	0.014117074
34.339	0.013549146
34.3593	0.010019877
34.3795	0.014685003
34.3998	0.011601963
34.42	0.01196706
34.4403	0.011601963
34.4605	0.012251024
34.4807	0.00977648
34.501	0.011115168
34.5212	0.011074601
34.5415	0.009979311
34.5617	0.010344408
34.582	0.009127419
34.6022	0.010222709
34.6225	0.009289684
34.6427	0.011885928
34.663	0.010506673
34.6832	0.010263275
34.7035	0.009614214
34.7237	0.010060444
34.744	0.008113261
34.7642	0.007017971
34.7845	0.008032129
34.8047	0.009127419
34.825	0.007545333
34.8452	0.007504767
34.8655	0.010060444
34.8857	0.009289684
34.906	0.007748164
34.9262	0.007180236
34.9464	0.00669344
34.9667	0.009127419
34.9869	0.008681189
35.0072	0.006125512
35.0274	0.0074642
35.0477	0.008802888
35.0679	0.010182143
35.0882	0.00669344
35.1084	0.00933025
35.1287	0.0074642
35.1489	0.007383068
35.1692	0.006287777
35.1894	0.006734007
35.2097	0.009492516
35.2299	0.006612308
35.2502	0.009249118
35.2704	0.009208551
35.2907	0.008965154
35.3109	0.006855706
35.3312	0.007950996
35.3514	0.010750071
35.3716	0.006612308
35.3919	0.007829297
35.4121	0.010547239
35.4324	0.010141576
35.4526	0.008681189
35.4729	0.008113261
35.4931	0.007991562
35.5134	0.007950996
35.5336	0.008681189
35.5539	0.008884021
35.5741	0.010019877
35.5944	0.008884021
35.6146	0.008275526
35.6349	0.005638716
35.6551	0.006084946
35.6754	0.00791043
35.6956	0.006409476
35.7159	0.007991562
35.7361	0.006490609
35.7564	0.005476451
35.7766	0.007099103
35.7968	0.006977405
35.8171	0.007504767
35.8373	0.00636891
35.8576	0.007667032
35.8778	0.007707598
35.8981	0.008316093
35.9183	0.005719849
35.9386	0.006450043
35.9588	0.005963247
35.9791	0.006734007
35.9993	0.008518924
36.0196	0.006409476
36.0398	0.005517018
36.0601	0.006328344
36.0803	0.007626465
36.1006	0.008802888
36.1208	0.009370817
36.1411	0.007423634
36.1613	0.006815139
36.1816	0.009857612
36.2018	0.010587806
36.222	0.012981218
36.2423	0.01460387
36.2625	0.02097278
36.2828	0.022352034
36.303	0.024136952
36.3233	0.025394507
36.3435	0.020769948
36.3638	0.017200114
36.384	0.01460387
36.4043	0.016064257
36.4245	0.014685003
36.4448	0.009938745
36.465	0.007667032
36.4853	0.009289684
36.5055	0.005233053
36.5258	0.007342501
36.546	0.006003813
36.5663	0.004989656
36.5865	0.005841548
36.6068	0.00527362
36.627	0.003975498
36.6473	0.006166078
36.6675	0.007342501
36.6877	0.004016064
36.708	0.004908523
36.7282	0.006774573
36.7485	0.004218896
36.7687	0.006409476
36.789	0.004218896
36.8092	0.004705691
36.8295	0.005963247
36.8497	0.0037321
36.87	0.002839641
36.8902	0.005557584
36.9105	0.002109448
36.9307	0.003529269
36.951	0.004949089
36.9712	0.004949089
36.9915	0.004867957
37.0117	0.003326437
37.032	0.005517018
37.0522	0.005151921
37.0725	0.006084946
37.0927	0.003001907
37.1129	0.007301935
37.1332	0.004543426
37.1534	0.004705691
37.1737	0.006450043
37.1939	0.006531175
37.2142	0.005476451
37.2344	0.006287777
37.2547	0.008924587
37.2749	0.007748164
37.2952	0.008437792
37.3154	0.008600057
37.3357	0.007788731
37.3559	0.006206645
37.3762	0.007707598
37.3964	0.0074642
37.4167	0.006977405
37.4369	0.005638716
37.4572	0.006734007
37.4774	0.007017971
37.4977	0.007342501
37.5179	0.006936838
37.5381	0.007017971
37.5584	0.007869863
37.5786	0.009735913
37.5989	0.007707598
37.6191	0.007261369
37.6394	0.006247211
37.6596	0.006936838
37.6799	0.007748164
37.7001	0.008640623
37.7204	0.010547239
37.7406	0.008924587
37.7609	0.006815139
37.7811	0.007585899
37.8014	0.009614214
37.8216	0.007017971
37.8419	0.008965154
37.8621	0.008924587
37.8824	0.007180236
37.9026	0.008275526
37.9229	0.01010101
37.9431	0.008884021
37.9633	0.00977648
37.9836	0.010182143
38.0038	0.013102917
38.0241	0.010344408
38.0443	0.013711411
38.0646	0.01537463
38.0848	0.016307655
38.1051	0.0187822
38.1253	0.019674658
38.1456	0.019634092
38.1658	0.022798264
38.1861	0.024745446
38.2063	0.024420916
38.2266	0.0262464
38.2468	0.030424729
38.2671	0.029653969
38.2873	0.035373819
38.3076	0.038375725
38.3278	0.044988033
38.3481	0.054521115
38.3683	0.070260841
38.3885	0.102145958
38.4088	0.150379295
38.429	0.251551661
38.4493	0.382743094
38.4695	0.579367977
38.4898	0.781834408
38.51	0.821589388
38.5303	0.707841467
38.5505	0.581558558
38.5708	0.540221492
38.591	0.546306438
38.6113	0.51048639
38.6315	0.377915703
38.6518	0.268995173
38.672	0.190499371
38.6923	0.142266034
38.7125	0.111111111
38.7328	0.094681757
38.753	0.073384447
38.7733	0.064297594
38.7935	0.056468297
38.8138	0.044460671
38.834	0.041783295
38.8542	0.036022879
38.8745	0.028842643
38.8947	0.026003002
38.915	0.022149203
38.9352	0.018903898
38.9555	0.016997282
38.9757	0.017970873
38.996	0.015009533
39.0162	0.013670845
39.0365	0.013468013
39.0567	0.012372723
39.077	0.010141576
39.0972	0.00933025
39.1175	0.010222709
39.1377	0.008721756
39.158	0.008478358
39.1782	0.00713967
39.1985	0.00855949
39.2187	0.009249118
39.239	0.008924587
39.2592	0.007585899
39.2794	0.008681189
39.2997	0.006936838
39.3199	0.009492516
39.3402	0.007707598
39.3604	0.005435885
39.3807	0.008032129
39.4009	0.008316093
39.4212	0.008437792
39.4414	0.007829297
39.4617	0.007099103
39.4819	0.006450043
39.5022	0.006206645
39.5224	0.007829297
39.5427	0.007383068
39.5629	0.005922681
39.5832	0.009411383
39.6034	0.006490609
39.6237	0.007099103
39.6439	0.006815139
39.6642	0.006490609
39.6844	0.007017971
39.7046	0.005638716
39.7249	0.007748164
39.7451	0.009451949
39.7654	0.006855706
39.7856	0.009938745
39.8059	0.007423634
39.8261	0.005760415
39.8464	0.007748164
39.8666	0.007748164
39.8869	0.007748164
39.9071	0.00636891
39.9274	0.008600057
39.9476	0.008194394
39.9679	0.008600057
39.9881	0.008437792
40.0084	0.010141576
40.0286	0.009654781
40.0489	0.009451949
40.0691	0.012453856
40.0894	0.014725569
40.1096	0.013995375
40.1298	0.01427934
40.1501	0.018376536
40.1703	0.018173705
40.1906	0.021784106
40.2108	0.026611496
40.2311	0.036063446
40.2513	0.052573932
40.2716	0.071599529
40.2918	0.098048761
40.3121	0.118088516
40.3323	0.125268752
40.3526	0.116912093
40.3728	0.093261937
40.3931	0.079956188
40.4133	0.078901464
40.4336	0.077441077
40.4538	0.061011724
40.4741	0.047949373
40.4943	0.030992658
40.5146	0.024786013
40.5348	0.016104823
40.5551	0.015780293
40.5753	0.014887834
40.5955	0.012332157
40.6158	0.011115168
40.636	0.01010101
40.6563	0.010384974
40.6765	0.005922681
40.6968	0.009127419
40.717	0.008721756
40.7373	0.007058537
40.7575	0.007869863
40.7778	0.004989656
40.798	0.00559815
40.8183	0.007099103
40.8385	0.008113261
40.8588	0.006490609
40.879	0.005233053
40.8993	0.006166078
40.9195	0.005111355
40.9398	0.005963247
40.96	0.006328344
40.9803	0.005151921
41.0005	0.004137763
41.0207	0.004908523
41.041	0.002799075
41.0612	0.004340595
41.0815	0.004705691
41.1017	0.005354752
41.122	0.004056631
41.1422	0.005882114
41.1625	0.00296134
41.1827	0.00340757
41.203	0.005638716
41.2232	0.004705691
41.2435	0.004137763
41.2637	0.003894365
41.284	0.003488702
41.3042	0.003610401
41.3245	0.00527362
41.3447	0.005841548
41.365	0.004381161
41.3852	0.004908523
41.4055	0.004178329
41.4257	0.005638716
41.4459	0.005638716
41.4662	0.003610401
41.4864	0.00527362
41.5067	0.005192487
41.5269	0.00450286
41.5472	0.005070788
41.5674	0.004421727
41.5877	0.006084946
41.6079	0.005963247
41.6282	0.003894365
41.6484	0.005030222
41.6687	0.005719849
41.6889	0.003610401
41.7092	0.005800982
41.7294	0.005719849
41.7497	0.006287777
41.7699	0.006734007
41.7902	0.00450286
41.8104	0.005800982
41.8307	0.007301935
41.8509	0.007017971
41.8711	0.008600057
41.8914	0.008721756
41.9116	0.00713967
41.9319	0.008681189
41.9521	0.00713967
41.9724	0.007180236
41.9926	0.005800982
42.0129	0.007585899
42.0331	0.006855706
42.0534	0.00636891
42.0736	0.009938745
42.0939	0.007869863
42.1141	0.006774573
42.1344	0.00669344
42.1546	0.009654781
42.1749	0.008316093
42.1951	0.006896272
42.2154	0.006166078
42.2356	0.007667032
42.2559	0.007017971
42.2761	0.006896272
42.2963	0.006774573
42.3166	0.00636891
42.3368	0.006084946
42.3571	0.006166078
42.3773	0.007301935
42.3976	0.006612308
42.4178	0.006571742
42.4381	0.00604438
42.4583	0.005314186
42.4786	0.007626465
42.4988	0.006896272
42.5191	0.004016064
42.5393	0.006125512
42.5596	0.005070788
42.5798	0.006084946
42.6001	0.006612308
42.6203	0.004949089
42.6406	0.005030222
42.6608	0.004218896
42.6811	0.004178329
42.7013	0.004624559
42.7216	0.005638716
42.7418	0.004097197
42.762	0.004462294
42.7823	0.005151921
42.8025	0.004259462
42.8228	0.00527362
42.843	0.004949089
42.8633	0.004340595
42.8835	0.004583993
42.9038	0.004218896
42.924	0.004340595
42.9443	0.003367003
42.9645	0.003975498
42.9848	0.004989656
43.005	0.003813233
43.0253	0.004178329
43.0455	0.005192487
43.0658	0.005151921
43.086	0.005111355
43.1063	0.005314186
43.1265	0.002920774
43.1468	0.002839641
43.167	0.004665125
43.1872	0.003529269
43.2075	0.003934932
43.2277	0.005395319
43.248	0.003650968
43.2682	0.002433978
43.2885	0.00450286
43.3087	0.003691534
43.329	0.005435885
43.3492	0.006166078
43.3695	0.004665125
43.3897	0.001987749
43.41	0.004665125
43.4302	0.001825484
43.4505	0.002799075
43.4707	0.002352846
43.491	0.003164172
43.5112	0.003488702
43.5315	0.002190581
43.5517	0.003448136
43.572	0.003691534
43.5922	0.003001907
43.6124	0.003610401
43.6327	0.00527362
43.6529	0.003853799
43.6732	0.004016064
43.6934	0.003001907
43.7137	0.003569835
43.7339	0.006612308
43.7542	0.00482739
43.7744	0.004421727
43.7947	0.005517018
43.8149	0.002393412
43.8352	0.003042473
43.8554	0.003204738
43.8757	0.004543426
43.8959	0.00340757
43.9162	0.005070788
43.9364	0.003285871
43.9567	0.005030222
43.9769	0.003042473
43.9972	0.004867957
44.0174	0.004300028
44.0376	0.004665125
44.0579	0.005395319
44.0781	0.004462294
44.0984	0.005233053
44.1186	0.004381161
44.1389	0.003853799
44.1591	0.004665125
44.1794	0.004462294
44.1996	0.002839641
44.2199	0.002758509
44.2401	0.004786824
44.2604	0.005841548
44.2806	0.005557584
44.3009	0.005030222
44.3211	0.005557584
44.3414	0.004624559
44.3616	0.006206645
44.3819	0.006450043
44.4021	0.005030222
44.4224	0.005760415
44.4426	0.006774573
44.4629	0.007180236
44.4831	0.004867957
44.5033	0.007342501
44.5236	0.007099103
44.5438	0.008397225
44.5641	0.007545333
44.5843	0.005963247
44.6046	0.006896272
44.6248	0.005233053
44.6451	0.00636891
44.6653	0.007099103
44.6856	0.005841548
44.7058	0.007585899
44.7261	0.007261369
44.7463	0.006328344
44.7666	0.00482739
44.7868	0.006328344
44.8071	0.006977405
44.8273	0.004624559
44.8476	0.005517018
44.8678	0.007788731
44.8881	0.0074642
44.9083	0.007342501
44.9285	0.005517018
44.9488	0.007220802
44.969	0.006084946
44.9893	0.008113261
45.0095	0.008600057
45.0298	0.006896272
45.05	0.010141576
45.0703	0.007383068
45.0905	0.008924587
45.1108	0.007748164
45.131	0.009573648
45.1513	0.010019877
45.1715	0.009735913
45.1918	0.010750071
45.212	0.01241329
45.2323	0.010384974
45.2525	0.013265182
45.2728	0.012900085
45.293	0.013954809
45.3133	0.012372723
45.3335	0.011764229
45.3537	0.012859519
45.374	0.01164253
45.3942	0.015536895
45.4145	0.013102917
45.4347	0.015942558
45.455	0.014887834
45.4752	0.012616121
45.4955	0.014482171
45.5157	0.012453856
45.536	0.010912336
45.5562	0.012778386
45.5765	0.012697254
45.5967	0.008843455
45.617	0.010182143
45.6372	0.009573648
45.6575	0.009817046
45.6777	0.008884021
45.698	0.010222709
45.7182	0.007626465
45.7385	0.008924587
45.7587	0.010182143
45.7789	0.009167985
45.7992	0.009086852
45.8194	0.007626465
45.8397	0.008884021
45.8599	0.008194394
45.8802	0.006896272
45.9004	0.008924587
45.9207	0.008316093
45.9409	0.009167985
45.9612	0.007220802
45.9814	0.009938745
46.0017	0.009735913
46.0219	0.010993469
46.0422	0.011480264
46.0624	0.012575555
46.0827	0.012981218
46.1029	0.012251024
46.1232	0.014847268
46.1434	0.014968967
46.1637	0.015415196
46.1839	0.016064257
46.2041	0.020485984
46.2244	0.021865239
46.2446	0.025313375
46.2649	0.025435074
46.2851	0.029653969
46.3054	0.032412478
46.3256	0.035373819
46.3459	0.036509675
46.3661	0.041418198
46.3864	0.047787108
46.4066	0.050991846
46.4269	0.05654943
46.4471	0.063729666
46.4674	0.07565616
46.4876	0.097764797
46.5079	0.142022636
46.5281	0.219342015
46.5484	0.366192041
46.5686	0.593079388
46.5889	0.860735873
46.6091	1
46.6294	0.930104255
46.6496	0.773640015
46.6698	0.64751937
46.6901	0.636890998
46.7103	0.683907347
46.7306	0.705853718
46.7508	0.637702324
46.7711	0.504482577
46.7913	0.377266642
46.8116	0.285708491
46.8318	0.214190094
46.8521	0.184089895
46.8723	0.156788771
46.8926	0.140318851
46.9128	0.111476208
46.9331	0.094397793
46.9533	0.078333536
46.9736	0.068841021
46.9938	0.06072776
47.0141	0.058821143
47.0343	0.053222993
47.0546	0.049044664
47.0748	0.046894649
47.095	0.044379538
47.1153	0.044663502
47.1355	0.042188958
47.1558	0.043324814
47.176	0.038821954
47.1963	0.039836112
47.2165	0.039065352
47.2368	0.045799359
47.257	0.045799359
47.2773	0.050302219
47.2975	0.054805079
47.3178	0.057076792
47.338	0.064257028
47.3583	0.068881587
47.3785	0.074358038
47.3988	0.073749544
47.419	0.078049572
47.4393	0.074844834
47.4595	0.066163644
47.4798	0.061092856
47.5	0.053750355
47.5202	0.049328628
47.5405	0.049247495
47.5607	0.043933309
47.581	0.037158736
47.6012	0.033751166
47.6215	0.026895461
47.6417	0.025597339
47.662	0.018295404
47.6822	0.016916149
47.7025	0.015618028
47.7227	0.013873677
47.743	0.0149284
47.7632	0.01273782
47.7835	0.010831204
47.8037	0.010466107
47.824	0.009046286
47.8442	0.01087177
47.8645	0.007383068
47.8847	0.008072695
47.905	0.009614214
47.9252	0.006571742
47.9454	0.009046286
47.9657	0.008316093
47.9859	0.006612308
48.0062	0.007869863
48.0264	0.005719849
48.0467	0.007017971
48.0669	0.004462294
48.0872	0.006247211
48.1074	0.00791043
48.1277	0.005922681
48.1479	0.005719849
48.1682	0.006287777
48.1884	0.004746258
48.2087	0.004543426
48.2289	0.007788731
48.2492	0.006936838
48.2694	0.005963247
48.2897	0.006531175
48.3099	0.003285871
48.3302	0.004137763
48.3504	0.005395319
48.3707	0.007301935
48.3909	0.00450286
48.4111	0.006409476
48.4314	0.004137763
48.4516	0.004908523
48.4719	0.00604438
48.4921	0.004300028
48.5124	0.00669344
48.5326	0.003326437
48.5529	0.003975498
48.5731	0.006328344
48.5934	0.003569835
48.6136	0.007748164
48.6339	0.006084946
48.6541	0.005963247
48.6744	0.002920774
48.6946	0.007788731
48.7149	0.004340595
48.7351	0.004786824
48.7554	0.004786824
48.7756	0.005395319
48.7959	0.004908523
48.8161	0.007504767
48.8363	0.003772666
48.8566	0.005800982
48.8768	0.00340757
48.8971	0.006450043
48.9173	0.005151921
48.9376	0.005070788
48.9578	0.005151921
48.9781	0.006125512
48.9983	0.006166078
49.0186	0.00669344
49.0388	0.005679283
49.0591	0.003083039
49.0793	0.004462294
49.0996	0.005314186
49.1198	0.005476451
49.1401	0.005719849
49.1603	0.004543426
49.1806	0.004178329
49.2008	0.005030222
49.2211	0.004543426
49.2413	0.004259462
49.2615	0.004178329
49.2818	0.005719849
49.302	0.004989656
49.3223	0.006531175
49.3425	0.004421727
49.3628	0.005517018
49.383	0.005638716
49.4033	0.00482739
49.4235	0.0074642
49.4438	0.005679283
49.464	0.003975498
49.4843	0.004178329
49.5045	0.005963247
49.5248	0.00669344
49.545	0.004583993
49.5653	0.00604438
49.5855	0.005841548
49.6058	0.005476451
49.626	0.004218896
49.6463	0.00482739
49.6665	0.004178329
49.6867	0.003569835
49.707	0.004381161
49.7272	0.004867957
49.7475	0.002758509
49.7677	0.004949089
49.788	0.005314186
49.8082	0.003488702
49.8285	0.003813233
49.8487	0.00559815
49.869	0.005800982
49.8892	0.003691534
49.9095	0.005679283
49.9297	0.005395319
49.95	0.004786824
49.9702	0.006490609
49.9905	0.004949089
50.0107	0.003245304
50.031	0.005192487
50.0512	0.004016064
50.0715	0.006287777
50.0917	0.005233053
50.1119	0.004381161
50.1322	0.004381161
50.1524	0.004462294
50.1727	0.003164172
50.1929	0.004705691
50.2132	0.004300028
50.2334	0.002596244
50.2537	0.003529269
50.2739	0.003772666
50.2942	0.004746258
50.3144	0.002555677
50.3347	0.005314186
50.3549	0.005192487
50.3752	0.005841548
50.3954	0.00296134
50.4157	0.003448136
50.4359	0.003569835
50.4562	0.002717942
50.4764	0.005070788
50.4967	0.00263681
50.5169	0.003813233
50.5372	0.002758509
50.5574	0.004786824
50.5776	0.001825484
50.5979	0.003123606
50.6181	0.003610401
50.6384	0.002839641
50.6586	0.003853799
50.6789	0.003204738
50.6991	0.004786824
50.7194	0.003934932
50.7396	0.004259462
50.7599	0.002433978
50.7801	0.004786824
50.8004	0.001906616
50.8206	0.003975498
50.8409	0.003042473
50.8611	0.003529269
50.8814	0.004381161
50.9016	0.003934932
50.9219	0.005760415
50.9421	0.003001907
50.9624	0.005435885
50.9826	0.002717942
51.0028	0.005070788
51.0231	0.003001907
51.0433	0.004989656
51.0636	0.005841548
51.0838	0.004665125
51.1041	0.003164172
51.1243	0.002799075
51.1446	0.005233053
51.1648	0.004705691
51.1851	0.004949089
51.2053	0.005800982
51.2256	0.006125512
51.2458	0.004381161
51.2661	0.007220802
51.2863	0.00527362
51.3066	0.007869863
51.3268	0.006936838
51.3471	0.008397225
51.3673	0.011277433
51.3876	0.015334064
51.4078	0.021013346
51.428	0.030221898
51.4483	0.03667194
51.4685	0.031520019
51.4888	0.026733195
51.509	0.02129731
51.5293	0.016267089
51.5495	0.018295404
51.5698	0.021216178
51.59	0.021094479
51.6103	0.017808608
51.6305	0.014401039
51.6508	0.009979311
51.671	0.008721756
51.6913	0.004786824
51.7115	0.00482739
51.7318	0.006896272
51.752	0.00559815
51.7723	0.005435885
51.7925	0.004665125
51.8128	0.003975498
51.833	0.004624559
51.8532	0.007788731
51.8735	0.00527362
51.8937	0.004218896
51.914	0.004259462
51.9342	0.003934932
51.9545	0.004624559
51.9747	0.003083039
51.995	0.004543426
52.0152	0.003853799
52.0355	0.002839641
52.0557	0.004300028
52.076	0.003245304
52.0962	0.004624559
52.1165	0.004705691
52.1367	0.003529269
52.157	0.005354752
52.1772	0.004016064
52.1975	0.002758509
52.2177	0.0037321
52.238	0.005314186
52.2582	0.00482739
52.2785	0.005233053
52.2987	0.004381161
52.3189	0.004624559
52.3392	0.007220802
52.3594	0.005638716
52.3797	0.006774573
52.3999	0.007423634
52.4202	0.008600057
52.4404	0.010547239
52.4607	0.010709505
52.4809	0.0149284
52.5012	0.016510486
52.5214	0.020526551
52.5417	0.022189769
52.5619	0.021135045
52.5822	0.0225143
52.6024	0.024907712
52.6227	0.02657093
52.6429	0.0299785
52.6632	0.03074926
52.6834	0.02766622
52.7037	0.02734169
52.7239	0.022919963
52.7441	0.02206807
52.7644	0.022270902
52.7846	0.022149203
52.8049	0.020039755
52.8251	0.017930307
52.8454	0.015780293
52.8656	0.014522737
52.8859	0.012048193
52.9061	0.011845361
52.9264	0.012332157
52.9466	0.010790637
52.9669	0.011926494
52.9871	0.009451949
53.0074	0.010425541
53.0276	0.010344408
53.0479	0.00855949
53.0681	0.012981218
53.0884	0.010344408
53.1086	0.011399132
53.1289	0.011155734
53.1491	0.011074601
53.1693	0.011885928
53.1896	0.011317999
53.2098	0.012900085
53.2301	0.014847268
53.2503	0.015658594
53.2706	0.012534988
53.2908	0.013102917
53.3111	0.010750071
53.3313	0.010668938
53.3516	0.01087177
53.3718	0.008640623
53.3921	0.007099103
53.4123	0.009086852
53.4326	0.00823496
53.4528	0.007220802
53.4731	0.005922681
53.4933	0.006531175
53.5136	0.006855706
53.5338	0.005435885
53.5541	0.006125512
53.5743	0.005395319
53.5945	0.004016064
53.6148	0.004705691
53.635	0.003813233
53.6553	0.003083039
53.6755	0.003285871
53.6958	0.003894365
53.716	0.0037321
53.7363	0.004989656
53.7565	0.004421727
53.7768	0.003934932
53.797	0.005841548
53.8173	0.003650968
53.8375	0.003772666
53.8578	0.00340757
53.878	0.005800982
53.8983	0.003245304
53.9185	0.004705691
53.9388	0.003529269
53.959	0.001784917
53.9793	0.004624559
53.9995	0.004908523
54.0197	0.002839641
54.04	0.005151921
54.0602	0.003975498
54.0805	0.004421727
54.1007	0.001338688
54.121	0.003448136
54.1412	0.004097197
54.1615	0.004583993
54.1817	0.004583993
54.202	0.002717942
54.2222	0.00340757
54.2425	0.003569835
54.2627	0.003934932
54.283	0.003326437
54.3032	0.003894365
54.3235	0.004462294
54.3437	0.003975498
54.364	0.003772666
54.3842	0.003448136
54.4045	0.004786824
54.4247	0.003285871
54.445	0.005314186
54.4652	0.003204738
54.4854	0.003934932
54.5057	0.004300028
54.5259	0.003488702
54.5462	0.004786824
54.5664	0.005922681
54.5867	0.005719849
54.6069	0.004908523
54.6272	0.005476451
54.6474	0.004786824
54.6677	0.007626465
54.6879	0.00636891
54.7082	0.0074642
54.7284	0.006734007
54.7487	0.007383068
54.7689	0.00855949
54.7892	0.008316093
54.8094	0.011317999
54.8297	0.013954809
54.8499	0.01569916
54.8702	0.024299217
54.8904	0.03403513
54.9106	0.053101294
54.9309	0.085676037
54.9511	0.109488459
54.9714	0.119995132
54.9916	0.107338445
55.0119	0.096831772
55.0321	0.078495801
55.0524	0.06961178
55.0726	0.068313659
55.0929	0.07642692
55.1131	0.07938826
55.1334	0.076142956
55.1536	0.06259381
55.1739	0.050626749
55.1941	0.038294593
55.2144	0.030870959
55.2346	0.028558679
55.2549	0.024299217
55.2751	0.021378443
55.2954	0.014968967
55.3156	0.017930307
55.3358	0.015496329
55.3561	0.010668938
55.3763	0.011439698
55.3966	0.010790637
55.4168	0.010709505
55.4371	0.010263275
55.4573	0.008681189
55.4776	0.006612308
55.4978	0.009573648
55.5181	0.008316093
55.5383	0.00636891
55.5586	0.006936838
55.5788	0.007950996
55.5991	0.005922681
55.6193	0.008072695
55.6396	0.004665125
55.6598	0.007829297
55.6801	0.010060444
55.7003	0.006936838
55.7206	0.00823496
55.7408	0.009614214
55.761	0.005963247
55.7813	0.005435885
55.8015	0.005030222
55.8218	0.007504767
55.842	0.005354752
55.8623	0.009492516
55.8825	0.005760415
55.9028	0.005476451
55.923	0.005192487
55.9433	0.003001907
55.9635	0.005151921
55.9838	0.00450286
56.004	0.003245304
56.0243	0.004016064
56.0445	0.002596244
56.0648	0.004949089
56.085	0.004381161
56.1053	0.006855706
56.1255	0.005638716
56.1458	0.003894365
56.166	0.002880208
56.1863	0.002880208
56.2065	0.004746258
56.2267	0.004137763
56.247	0.003285871
56.2672	0.005638716
56.2875	0.001663219
56.3077	0.004786824
56.328	0.00340757
56.3482	0.004705691
56.3685	0.00450286
56.3887	0.003650968
56.409	0.004624559
56.4292	0.004949089
56.4495	0.0037321
56.4697	0.005476451
56.49	0.003894365
56.5102	0.004137763
56.5305	0.004259462
56.5507	0.004786824
56.571	0.004786824
56.5912	0.005070788
56.6115	0.003285871
56.6317	0.006328344
56.6519	0.003569835
56.6722	0.003650968
56.6924	0.003326437
56.7127	0.003285871
56.7329	0.004949089
56.7532	0.003853799
56.7734	0.004340595
56.7937	0.004705691
56.8139	0.004786824
56.8342	0.005435885
56.8544	0.003975498
56.8747	0.003894365
56.8949	0.005192487
56.9152	0.004786824
56.9354	0.005111355
56.9557	0.004300028
56.9759	0.005314186
56.9962	0.004583993
57.0164	0.003975498
57.0367	0.004016064
57.0569	0.005354752
57.0771	0.003245304
57.0974	0.005192487
57.1176	0.002677376
57.1379	0.003691534
57.1581	0.004097197
57.1784	0.005517018
57.1986	0.004543426
57.2189	0.005111355
57.2391	0.002839641
57.2594	0.004665125
57.2796	0.003934932
57.2999	0.004421727
57.3201	0.004097197
57.3404	0.005476451
57.3606	0.004016064
57.3809	0.005679283
57.4011	0.005354752
57.4214	0.006450043
57.4416	0.005557584
57.4619	0.004705691
57.4821	0.005111355
57.5023	0.004908523
57.5226	0.005395319
57.5428	0.003894365
57.5631	0.00669344
57.5833	0.0074642
57.6036	0.005800982
57.6238	0.00604438
57.6441	0.007099103
57.6643	0.00791043
57.6846	0.007504767
57.7048	0.00900572
57.7251	0.008113261
57.7453	0.008275526
57.7656	0.011885928
57.7858	0.012372723
57.8061	0.010628372
57.8263	0.014685003
57.8466	0.013468013
57.8668	0.016185956
57.8871	0.015212365
57.9073	0.021337877
57.9275	0.021013346
57.9478	0.021419009
57.968	0.026205833
57.9883	0.027950185
58.0085	0.031641718
58.0288	0.039998377
58.049	0.043568212
58.0693	0.059916433
58.0895	0.084418482
58.1098	0.120116831
58.13	0.157802929
58.1503	0.191270131
58.1705	0.204007951
58.1908	0.194474869
58.211	0.1797493
58.2313	0.16887753
58.2515	0.165956756
58.2718	0.165632226
58.292	0.165388828
58.3123	0.164334104
58.3325	0.16031804
58.3528	0.141454708
58.373	0.122226279
58.3932	0.114315849
58.4135	0.104701635
58.4337	0.096061012
58.454	0.081497708
58.4742	0.071883494
58.4945	0.069206117
58.5147	0.06774573
58.535	0.065757981
58.5552	0.066123078
58.5755	0.069084418
58.5957	0.072613687
58.616	0.075047665
58.6362	0.07938826
58.6565	0.079347694
58.6767	0.076183522
58.697	0.075047665
58.7172	0.065676849
58.7375	0.057401322
58.7577	0.051438076
58.778	0.05204657
58.7982	0.054399416
58.8184	0.049896556
58.8387	0.046529553
58.8589	0.039552148
58.8792	0.033629467
58.8994	0.025516206
58.9197	0.025232242
58.9399	0.02020202
58.9602	0.018701067
58.9804	0.015415196
59.0007	0.015171798
59.0209	0.011723662
59.0412	0.010506673
59.0614	0.011317999
59.0817	0.008437792
59.1019	0.007829297
59.1222	0.007626465
59.1424	0.007261369
59.1627	0.007099103
59.1829	0.007788731
59.2032	0.00604438
59.2234	0.005476451
59.2436	0.006815139
59.2639	0.006896272
59.2841	0.004097197
59.3044	0.004421727
59.3246	0.003123606
59.3449	0.005882114
59.3651	0.003772666
59.3854	0.005314186
59.4056	0.005111355
59.4259	0.004381161
59.4461	0.005476451
59.4664	0.00527362
59.4866	0.003691534
59.5069	0.004665125
59.5271	0.0037321
59.5474	0.004705691
59.5676	0.002920774
59.5879	0.006003813
59.6081	0.0037321
59.6284	0.004421727
59.6486	0.00482739
59.6688	0.004786824
59.6891	0.004259462
59.7093	0.002758509
59.7296	0.005151921
59.7498	0.005030222
59.7701	0.004746258
59.7903	0.004056631
59.8106	0.003285871
59.8308	0.002474545
59.8511	0.005638716
59.8713	0.003448136
59.8916	0.003691534
59.9118	0.006612308
59.9321	0.002717942
59.9523	0.003448136
59.9726	0.003650968
59.9928	0.00186605
60.0131	0.002717942
60.0333	0.004016064
60.0536	0.002271713
60.0738	0.004908523
60.0941	0.004624559
60.1143	0.004056631
60.1345	0.004300028
60.1548	0.003853799
60.175	0.004421727
60.1953	0.004137763
60.2155	0.005354752
60.2358	0.006125512
60.256	0.009370817
60.2763	0.009533082
60.2965	0.00900572
60.3168	0.011317999
60.337	0.010222709
60.3573	0.008194394
60.3775	0.010141576
60.3978	0.012007626
60.418	0.011683096
60.4383	0.014644436
60.4585	0.012332157
60.4788	0.013265182
60.499	0.012291591
60.5193	0.011074601
60.5395	0.01087177
60.5597	0.009573648
60.58	0.010790637
60.6002	0.007707598
60.6205	0.009086852
60.6407	0.007585899
60.661	0.007950996
60.6812	0.004908523
60.7015	0.005963247
60.7217	0.004462294
60.742	0.003326437
60.7622	0.004867957
60.7825	0.003894365
60.8027	0.003001907
60.823	0.002717942
60.8432	0.004746258
60.8635	0.003285871
60.8837	0.003610401
60.904	0.004705691
60.9242	0.005151921
60.9445	0.005395319
60.9647	0.003083039
60.9849	0.003448136
61.0052	0.003813233
61.0254	0.003326437
61.0457	0.003975498
61.0659	0.003650968
61.0862	0.00340757
61.1064	0.004340595
61.1267	0.004300028
61.1469	0.004259462
61.1672	0.004178329
61.1874	0.004989656
61.2077	0.004665125
61.2279	0.004259462
61.2482	0.005638716
61.2684	0.005070788
61.2887	0.004056631
61.3089	0.00450286
61.3292	0.003650968
61.3494	0.004016064
61.3697	0.003894365
61.3899	0.00340757
61.4101	0.003853799
61.4304	0.003894365
61.4506	0.005395319
61.4709	0.005030222
61.4911	0.002758509
61.5114	0.002839641
61.5316	0.005111355
61.5519	0.004989656
61.5721	0.003123606
61.5924	0.003691534
61.6126	0.005030222
61.6329	0.002150014
61.6531	0.005395319
61.6734	0.004259462
61.6936	0.003042473
61.7139	0.003042473
61.7341	0.004259462
61.7544	0.004097197
61.7746	0.00482739
61.7949	0.003001907
61.8151	0.003813233
61.8353	0.003448136
61.8556	0.004908523
61.8758	0.004097197
61.8961	0.004989656
61.9163	0.005395319
61.9366	0.006084946
61.9568	0.00669344
61.9771	0.006896272
61.9973	0.008113261
62.0176	0.010019877
62.0378	0.011764229
62.0581	0.015942558
62.0783	0.016429354
62.0986	0.019755791
62.1188	0.018903898
62.1391	0.018133139
62.1593	0.01569916
62.1796	0.017321813
62.1998	0.016551053
62.2201	0.016064257
62.2403	0.019228429
62.2606	0.020526551
62.2808	0.020729382
62.301	0.017768042
62.3213	0.016388787
62.3415	0.014238773
62.3618	0.014441605
62.382	0.014198207
62.4023	0.014157641
62.4225	0.011317999
62.4428	0.013143483
62.463	0.012534988
62.4833	0.015455762
62.5035	0.013589712
62.5238	0.011601963
62.544	0.014644436
62.5643	0.01724068
62.5845	0.02020202
62.6048	0.019147296
62.625	0.02064825
62.6453	0.021702974
62.6655	0.019350128
62.6858	0.018173705
62.706	0.016591619
62.7262	0.014968967
62.7465	0.015050099
62.7667	0.016064257
62.787	0.013954809
62.8072	0.012251024
62.8275	0.009857612
62.8477	0.009249118
62.868	0.007017971
62.8882	0.009654781
62.9085	0.006450043
62.9287	0.00636891
62.949	0.006450043
62.9692	0.004097197
62.9895	0.005192487
63.0097	0.002758509
63.03	0.004583993
63.0502	0.00450286
63.0705	0.002312279
63.0907	0.004300028
63.111	0.005517018
63.1312	0.004016064
63.1514	0.002717942
63.1717	0.002880208
63.1919	0.002717942
63.2122	0.002109448
63.2324	0.004908523
63.2527	0.00186605
63.2729	0.003367003
63.2932	0.000851892
63.3134	0.002515111
63.3337	0.003083039
63.3539	0.002150014
63.3742	0.001987749
63.3944	0.001947183
63.4147	0.002190581
63.4349	0.003367003
63.4552	0.003813233
63.4754	0.001176423
63.4957	0.004867957
63.5159	0.00109529
63.5362	0.005192487
63.5564	0.003448136
63.5766	0.002677376
63.5969	0.003934932
63.6171	0.005314186
63.6374	0.005151921
63.6576	0.006936838
63.6779	0.006287777
63.6981	0.004381161
63.7184	0.005314186
63.7386	0.004786824
63.7589	0.004178329
63.7791	0.0037321
63.7994	0.002717942
63.8196	0.004543426
63.8399	0.00450286
63.8601	0.004097197
63.8804	0.002920774
63.9006	0.003691534
63.9209	0.003975498
63.9411	0.004381161
63.9614	0.003204738
63.9816	0.002393412
64.0019	0.0037321
64.0221	0.000933025
64.0423	0.002758509
64.0626	0.002880208
64.0828	0.00154152
64.1031	0.002271713
64.1233	0.001784917
64.1436	0.00077076
64.1638	0.001784917
64.1841	0.002717942
64.2043	0.001582086
64.2246	0.004056631
64.2448	0.001338688
64.2651	0.002596244
64.2853	0.001298122
64.3056	0.001298122
64.3258	0.002068882
64.3461	0.001663219
64.3663	0.002150014
64.3866	0.003894365
64.4068	0.001744351
64.4271	0.002839641
64.4473	0.002150014
64.4675	0.001906616
64.4878	0.001622652
64.508	0.003853799
64.5283	0.001500953
64.5485	0
64.5688	0.001784917
64.589	0.002393412
64.6093	0.002352846
64.6295	0.002839641
64.6498	0.002717942
64.67	0.002352846
64.6903	0.004705691
64.7105	0.002271713
64.7308	0.002758509
64.751	0.001298122
64.7713	0.002433978
64.7915	0.002474545
64.8118	0.002312279
64.832	0.002393412
64.8523	0.003650968
64.8725	0.003569835
64.8927	0.000649061
64.913	0.002799075
64.9332	0.002352846
64.9535	0.000608495
64.9737	0.003569835
64.994	0.003204738
65.0142	0.002717942
65.0345	0.004624559
65.0547	0.002271713
65.075	0.002231147
65.0952	0.002758509
65.1155	0.001460387
65.1357	0.002231147
65.156	0.002231147
65.1762	0.004097197
65.1965	0.003204738
65.2167	0.002271713
65.237	0.001744351
65.2572	0.003529269
65.2775	0.004746258
65.2977	0.005719849
65.3179	0.001987749
65.3382	0.003813233
65.3584	0.003123606
65.3787	0.006247211
65.3989	0.004218896
65.4192	0.007017971
65.4394	0.00713967
65.4597	0.011277433
65.4799	0.013711411
65.5002	0.019715225
65.5204	0.020851081
65.5407	0.017362379
65.5609	0.015212365
65.5812	0.011723662
65.6014	0.012129325
65.6217	0.009492516
65.6419	0.010425541
65.6622	0.009695347
65.6824	0.012129325
65.7027	0.010587806
65.7229	0.010425541
65.7431	0.009492516
65.7634	0.007829297
65.7836	0.005354752
65.8039	0.005517018
65.8241	0.003367003
65.8444	0.000892459
65.8646	0.003042473
65.8849	0.004867957
65.9051	0.004381161
65.9254	0.004867957
65.9456	0.003569835
65.9659	0.003772666
65.9861	0.002596244
66.0064	0.002190581
66.0266	0.003083039
66.0469	0.002677376
66.0671	0.001419821
66.0874	0.004340595
66.1076	0.002758509
66.1279	0.000527362
66.1481	0.003610401
66.1684	0.003123606
66.1886	0.001135857
66.2088	0.000730194
66.2291	0.003934932
66.2493	0.002190581
66.2696	0.003245304
66.2898	0.004300028
66.3101	0.002677376
66.3303	0.00263681
66.3506	0.002028315
66.3708	0.003001907
66.3911	0.003204738
66.4113	0.001216989
66.4316	0.00077076
66.4518	0.002068882
66.4721	0.003285871
66.4923	0.002515111
66.5126	0.00340757
66.5328	0.001744351
66.5531	0.002758509
66.5733	0.003083039
66.5936	0.002880208
66.6138	0.002433978
66.634	0.004097197
66.6543	0.004259462
66.6745	0.003650968
66.6948	0.003610401
66.715	0.004259462
66.7353	0.002393412
66.7555	0.002717942
66.7758	0.00154152
66.796	0.002880208
66.8163	0.00340757
66.8365	0.003610401
66.8568	0.001176423
66.877	0.002190581
66.8973	0.002515111
66.9175	0.001987749
66.9378	0.002920774
66.958	0.002393412
66.9783	0.002190581
66.9985	0.003772666
67.0188	0.001784917
67.039	0.004381161
67.0592	0.002758509
67.0795	0.003123606
67.0997	0.003001907
67.12	0.00296134
67.1402	0.002352846
67.1605	0.002109448
67.1807	0.002555677
67.201	0.002190581
67.2212	0.004705691
67.2415	0.003975498
67.2617	0.004705691
67.282	0.003691534
67.3022	0.00527362
67.3225	0.003164172
67.3427	0.001298122
67.363	0.003975498
67.3832	0.003042473
67.4035	0.004583993
67.4237	0.004218896
67.444	0.002312279
67.4642	0.005030222
67.4844	0.003164172
67.5047	0.003894365
67.5249	0.003245304
67.5452	0.004340595
67.5654	0.003691534
67.5857	0.007058537
67.6059	0.006450043
67.6262	0.005476451
67.6464	0.006531175
67.6667	0.006774573
67.6869	0.004543426
67.7072	0.004786824
67.7274	0.005476451
67.7477	0.004381161
67.7679	0.00450286
67.7882	0.007626465
67.8084	0.00669344
67.8287	0.005719849
67.8489	0.006003813
67.8692	0.007099103
67.8894	0.008884021
67.9097	0.005963247
67.9299	0.005395319
67.9501	0.007950996
67.9704	0.01010101
67.9906	0.010019877
68.0109	0.013102917
68.0311	0.012859519
68.0514	0.015131232
68.0716	0.020526551
68.0919	0.025719038
68.1121	0.028477547
68.1324	0.033913432
68.1526	0.034237962
68.1729	0.033304937
68.1931	0.029856801
68.2134	0.028355848
68.2336	0.024988844
68.2539	0.024826579
68.2741	0.025597339
68.2944	0.025353941
68.3146	0.025921869
68.3349	0.032696442
68.3551	0.027585088
68.3753	0.027301124
68.3956	0.026936027
68.4158	0.026084135
68.4361	0.025759604
68.4563	0.030546428
68.4766	0.02811245
68.4968	0.032696442
68.5171	0.03525212
68.5373	0.040971969
68.5576	0.047381445
68.5778	0.060200398
68.5981	0.063932498
68.6183	0.076873149
68.6386	0.075007099
68.6588	0.086811894
68.6791	0.084337349
68.6993	0.085919435
68.7196	0.087014726
68.7398	0.087785485
68.7601	0.092247779
68.7803	0.088353414
68.8005	0.079591092
68.8208	0.071558963
68.841	0.069043852
68.8613	0.058821143
68.8815	0.057482455
68.9018	0.054764513
68.922	0.05172204
68.9423	0.048436169
68.9625	0.039187051
68.9828	0.034156829
69.003	0.02843698
69.0233	0.025597339
69.0435	0.020242587
69.0638	0.020364285
69.084	0.014035942
69.1043	0.013265182
69.1245	0.009086852
69.1448	0.01164253
69.165	0.009573648
69.1853	0.008924587
69.2055	0.007342501
69.2257	0.006531175
69.246	0.007585899
69.2662	0.006003813
69.2865	0.005111355
69.3067	0.00636891
69.327	0.004097197
69.3472	0.006287777
69.3675	0.004624559
69.3877	0.005354752
69.408	0.004097197
69.4282	0.005395319
69.4485	0.004381161
69.4687	0.005070788
69.489	0.005354752
69.5092	0.002758509
69.5295	0.002190581
69.5497	0.005476451
69.57	0.003448136
69.5902	0.003367003
69.6105	0.004097197
69.6307	0.002393412
69.6509	0.003813233
69.6712	0.005111355
69.6914	0.001703785
69.7117	0.002555677
69.7319	0.00450286
69.7522	0.002555677
69.7724	0.004340595
69.7927	0.003529269
69.8129	0.00482739
69.8332	0.002352846
69.8534	0.003204738
69.8737	0.002880208
69.8939	0.002109448
69.9142	0.003123606
69.9344	0.004705691
69.9547	0.003853799
69.9749	0.003326437
69.9952	0.003975498
70.0154	0.00154152
70.0357	0.003853799
70.0559	0.003326437
70.0762	0.003204738
70.0964	0.003164172
70.1166	0.003204738
70.1369	0.002677376
70.1571	0.002433978
70.1774	0.003285871
70.1976	0.003975498
70.2179	0.004867957
70.2381	0.001582086
70.2584	0.003083039
70.2786	0.003691534
70.2989	0.003123606
70.3191	0.001703785
70.3394	0.003772666
70.3596	0.004624559
70.3799	0.001622652
70.4001	0.001419821
70.4204	0.003367003
70.4406	0.001784917
70.4609	0.00450286
70.4811	0.000730194
70.5014	0.001703785
70.5216	0.002352846
70.5418	0.001825484
70.5621	0.001947183
70.5823	0.003083039
70.6026	0.004218896
70.6228	0.003448136
70.6431	0.001784917
70.6633	0.002920774
70.6836	0.001825484
70.7038	0.003083039
70.7241	0.00296134
70.7443	0.002555677
70.7646	0.001947183
70.7848	0.005030222
70.8051	0.002474545
70.8253	0.003285871
70.8456	0.003650968
70.8658	0.003164172
70.8861	0.003975498
70.9063	0.003001907
70.9266	0.002352846
70.9468	0.003488702
70.967	0.002799075
70.9873	0.003367003
71.0075	0.001460387
71.0278	0.003367003
71.048	0.000730194
71.0683	0.0037321
71.0885	0.00340757
71.1088	0.002474545
71.129	0.002028315
71.1493	0.003894365
71.1695	0.002920774
71.1898	0.001419821
71.21	0.002474545
71.2303	0.003569835
71.2505	0.002515111
71.2708	0.000811326
71.291	0.002109448
71.3113	0.002474545
71.3315	0.002555677
71.3518	0.002190581
71.372	0.002068882
71.3922	0.002474545
71.4125	0.002839641
71.4327	0.001825484
71.453	0.002555677
71.4732	0.0037321
71.4935	0.002109448
71.5137	0.003610401
71.534	0.002312279
71.5542	0.000851892
71.5745	0.002231147
71.5947	0.000730194
71.615	0.001622652
71.6352	0.001784917
71.6555	0.001500953
71.6757	0.00186605
71.696	0.002839641
71.7162	0.001987749
71.7365	0.004421727
71.7567	0.001500953
71.777	0.00077076
71.7972	0.000608495
71.8175	0.002352846
71.8377	0.004786824
71.8579	0.001987749
71.8782	0.001014158
71.8984	0.002717942
71.9187	0.002393412
71.9389	0.000649061
71.9592	0.001338688
71.9794	0.001825484
71.9997	0.002717942
72.0199	0.003042473
72.0402	0.002758509
72.0604	0.001257555
72.0807	0.000405663
72.1009	0.002799075
72.1212	0.002474545
72.1414	0.00186605
72.1617	0.001460387
72.1819	0.003975498
72.2022	0.00263681
72.2224	0.001744351
72.2427	0.001825484
72.2629	0.000851892
72.2831	0.001054724
72.3034	0.000933025
72.3236	0.002271713
72.3439	0.001825484
72.3641	0.003367003
72.3844	0.001825484
72.4046	0.003488702
72.4249	0.003448136
72.4451	0.002190581
72.4654	0.004300028
72.4856	0.002596244
72.5059	0.004949089
72.5261	0.003488702
72.5464	0.001257555
72.5666	0.005070788
72.5869	0.003367003
72.6071	0.004786824
72.6274	0.003488702
72.6476	0.003569835
72.6679	0.005233053
72.6881	0.007991562
72.7083	0.009289684
72.7286	0.011926494
72.7488	0.020242587
72.7691	0.028558679
72.7893	0.032696442
72.8096	0.031520019
72.8298	0.031195489
72.8501	0.022635999
72.8703	0.022352034
72.8906	0.018741633
72.9108	0.017808608
72.9311	0.016916149
72.9513	0.019715225
72.9716	0.022433167
72.9918	0.022433167
73.0121	0.024258651
73.0323	0.02129731
73.0526	0.023122794
73.0728	0.020485984
73.0931	0.015618028
73.1133	0.01427934
73.1335	0.012251024
73.1538	0.01196706
73.174	0.009370817
73.1943	0.009614214
73.2145	0.010466107
73.2348	0.008194394
73.255	0.011236867
73.2753	0.010912336
73.2955	0.008316093
73.3158	0.007099103
73.336	0.009614214
73.3563	0.008762322
73.3765	0.010668938
73.3968	0.010466107
73.417	0.011561397
73.4373	0.013021784
73.4575	0.013954809
73.4778	0.015131232
73.498	0.015090666
73.5183	0.012291591
73.5385	0.013914243
73.5587	0.010587806
73.579	0.010019877
73.5992	0.007545333
73.6195	0.007626465
73.6397	0.009370817
73.66	0.009208551
73.6802	0.007950996
73.7005	0.00900572
73.7207	0.008356659
73.741	0.008153827
73.7612	0.005517018
73.7815	0.006166078
73.8017	0.004786824
73.822	0.004989656
73.8422	0.003083039
73.8625	0.00340757
73.8827	0.002433978
73.903	0.003772666
73.9232	0.002920774
73.9435	0.002352846
73.9637	0.001298122
73.984	0.003772666
74.0042	0.003813233
74.0244	0.003569835
74.0447	0.003448136
74.0649	0.002474545
74.0852	0.00450286
74.1054	0.002555677
74.1257	0.001500953
74.1459	0.003488702
74.1662	0.005030222
74.1864	0.0037321
74.2067	0.003894365
74.2269	0.003326437
74.2472	0.001622652
74.2674	0.003204738
74.2877	0.001987749
74.3079	0.001744351
74.3282	0.003042473
74.3484	0.001216989
74.3687	0.00296134
74.3889	0.004421727
74.4092	0.002433978
74.4294	0.002433978
74.4496	0.003204738
74.4699	0.002515111
74.4901	0.00186605
74.5104	0.001176423
74.5306	0.002231147
74.5509	0.003813233
74.5711	0.001135857
74.5914	0.002677376
74.6116	0.003164172
74.6319	0.002758509
74.6521	0.001703785
74.6724	0.002474545
74.6926	0.000851892
74.7129	0.003488702
74.7331	0.002393412
74.7534	0.003813233
74.7736	0.003042473
74.7939	0.004583993
74.8141	0.002677376
74.8344	0.003367003
74.8546	0.001987749
74.8748	0.003853799
74.8951	0.005070788
74.9153	0.005476451
74.9356	0.005638716
74.9558	0.008032129
74.9761	0.00791043
74.9963	0.007423634
75.0166	0.004786824
75.0368	0.006652874
75.0571	0.008518924
75.0773	0.005922681
75.0976	0.007017971
75.1178	0.005882114
75.1381	0.005030222
75.1583	0.005963247
75.1786	0.006734007
75.1988	0.006936838
75.2191	0.007180236
75.2393	0.007301935
75.2596	0.006125512
75.2798	0.007301935
75.3	0.004867957
75.3203	0.005557584
75.3405	0.00450286
75.3608	0.006166078
75.381	0.004624559
75.4013	0.004989656
75.4215	0.005192487
75.4418	0.007748164
75.462	0.00669344
75.4823	0.004989656
75.5025	0.007058537
75.5228	0.005638716
75.543	0.005151921
75.5633	0.006450043
75.5835	0.006084946
75.6038	0.007504767
75.624	0.002799075
75.6443	0.005435885
75.6645	0.004624559
75.6848	0.003975498
75.705	0.004381161
75.7253	0.004908523
75.7455	0.0037321
75.7657	0.003001907
75.786	0.002515111
75.8062	0.003650968
75.8265	0.002677376
75.8467	0.002028315
75.867	0.003650968
75.8872	0.002515111
75.9075	0.002231147
75.9277	0.002515111
75.948	0.003123606
75.9682	0.00263681
75.9885	0.001987749
76.0087	0.002393412
76.029	0.003691534
76.0492	0.003042473
76.0695	0.002515111
76.0897	0.001582086
76.11	0.002109448
76.1302	0.002555677
76.1505	0.002068882
76.1707	0.00263681
76.1909	0.003448136
76.2112	0.001784917
76.2314	0.002758509
76.2517	0.004056631
76.2719	0.003772666
76.2922	0.001500953
76.3124	0.003772666
76.3327	0.002150014
76.3529	0.002271713
76.3732	0.001379254
76.3934	0.003245304
76.4137	0.003650968
76.4339	0.003245304
76.4542	0.002717942
76.4744	0.004665125
76.4947	0.004746258
76.5149	0.001987749
76.5352	0.005151921
76.5554	0.002596244
76.5757	0.002880208
76.5959	0.002271713
76.6161	0.003083039
76.6364	0.002677376
76.6566	0.003123606
76.6769	0.004340595
76.6971	0.002474545
76.7174	0.002717942
76.7376	0.001419821
76.7579	0.002190581
76.7781	0.002271713
76.7984	0.004178329
76.8186	0.004097197
76.8389	0.003285871
76.8591	0.002839641
76.8794	0.003691534
76.8996	0.004949089
76.9199	0.0037321
76.9401	0.002433978
76.9604	0.00450286
76.9806	0.005679283
77.0009	0.005963247
77.0211	0.003285871
77.0413	0.005111355
77.0616	0.00527362
77.0818	0.00482739
77.1021	0.00296134
77.1223	0.004381161
77.1426	0.002515111
77.1628	0.004908523
77.1831	0.007099103
77.2033	0.003529269
77.2236	0.007626465
77.2438	0.00482739
77.2641	0.006287777
77.2843	0.007261369
77.3046	0.008072695
77.3248	0.009086852
77.3451	0.010263275
77.3653	0.011601963
77.3856	0.011885928
77.4058	0.018903898
77.4261	0.022960529
77.4463	0.027747353
77.4665	0.030100199
77.4868	0.031641718
77.507	0.032737009
77.5273	0.0374427
77.5475	0.041864427
77.5678	0.042310657
77.588	0.042756886
77.6083	0.042635187
77.6285	0.044095574
77.6488	0.042310657
77.669	0.041661596
77.6893	0.041702162
77.7095	0.041580463
77.7298	0.037564399
77.75	0.040120076
77.7703	0.041337065
77.7905	0.040769137
77.8108	0.041864427
77.831	0.039105919
77.8513	0.038578557
77.8715	0.031479453
77.8918	0.031682285
77.912	0.026165267
77.9322	0.024583181
77.9525	0.021581275
77.9727	0.021500142
77.993	0.021946371
78.0132	0.018417103
78.0335	0.019471827
78.0537	0.01756521
78.074	0.015171798
78.0942	0.012332157
78.1145	0.012656687
78.1347	0.01306235
78.155	0.009695347
78.1752	0.011358566
78.1955	0.00977648
78.2157	0.011277433
78.236	0.010790637
78.2562	0.008965154
78.2765	0.009573648
78.2967	0.010060444
78.317	0.009573648
78.3372	0.007991562
78.3574	0.007099103
78.3777	0.008843455
78.3979	0.007788731
78.4182	0.009614214
78.4384	0.009695347
78.4587	0.010141576
78.4789	0.010141576
78.4992	0.006490609
78.5194	0.00900572
78.5397	0.012088759
78.5599	0.012981218
78.5802	0.013305748
78.6004	0.012251024
78.6207	0.013305748
78.6409	0.01241329
78.6612	0.013386881
78.6814	0.016185956
78.7017	0.015983124
78.7219	0.018173705
78.7422	0.019593526
78.7624	0.019350128
78.7826	0.021500142
78.8029	0.01943126
78.8231	0.02174354
78.8434	0.021013346
78.8636	0.019187863
78.8839	0.017646343
78.9041	0.016956716
78.9244	0.016104823
78.9446	0.015090666
78.9649	0.015334064
78.9851	0.013670845
79.0054	0.013021784
79.0256	0.013021784
79.0459	0.013873677
79.0661	0.012332157
79.0864	0.011277433
79.1066	0.012007626
79.1269	0.009411383
79.1471	0.009492516
79.1674	0.009735913
79.1876	0.00559815
79.2078	0.007261369
79.2281	0.00636891
79.2483	0.005922681
79.2686	0.004786824
79.2888	0.005151921
79.3091	0.005557584
79.3293	0.006896272
79.3496	0.003975498
79.3698	0.003610401
79.3901	0.003772666
79.4103	0.003569835
79.4306	0.002190581
79.4508	0.004056631
79.4711	0.003975498
79.4913	0.003204738
79.5116	0.002677376
79.5318	0.003610401
79.5521	0.001947183
79.5723	0.005557584
79.5926	0.003083039
79.6128	0.002799075
79.6331	0.004665125
79.6533	0.004908523
79.6735	0.005030222
79.6938	0.004137763
79.714	0.00527362
79.7343	0.005395319
79.7545	0.006571742
79.7748	0.005638716
79.795	0.004665125
79.8153	0.004097197
79.8355	0.004259462
79.8558	0.004786824
79.876	0.005192487
79.8963	0.005963247
79.9165	0.004705691
79.9368	0.004746258
79.957	0.004056631
79.9773	0.004340595
79.9975	0.004300028
