10.0013	13.84850803
10.0216	12.31828615
10.0418	12.94950268
10.0621	12.56694721
10.0823	13.92501913
10.1026	11.85921959
10.1228	12.16526396
10.1431	10.90283091
10.1633	11.82096404
10.1835	12.29915838
10.2038	12.6434583
10.224	12.33741393
10.2443	11.43840857
10.2645	12.0696251
10.2848	12.26090283
10.305	10.82631982
10.3253	11.0558531
10.3455	11.993114
10.3658	11.59143076
10.386	10.90283091
10.4063	11.30451415
10.4265	12.18439174
10.4468	12.2800306
10.467	11.82096404
10.4873	11.18974751
10.5075	11.97398623
10.5278	11.24713083
10.548	10.57765876
10.5683	11.6296863
10.5885	12.52869166
10.6087	13.21729151
10.629	10.38638103
10.6492	10.99846978
10.6695	9.563886764
10.6897	11.20887529
10.71	10.92195868
10.7302	10.86457536
10.7505	10.74980872
10.7707	11.57230298
10.791	10.30986993
10.8112	10.71155318
10.8315	10.78806427
10.8517	10.84544759
10.872	10.90283091
10.8922	11.0558531
10.9125	10.15684774
10.9327	9.965570008
10.953	10.42463657
10.9732	10.63504208
10.9935	10.61591431
11.0137	9.047436878
11.0339	11.17061974
11.0542	11.13236419
11.0744	10.19510329
11.0947	10.1185922
11.1149	9.104820199
11.1352	10.82631982
11.1554	9.449120122
11.1757	9.621270084
11.1959	10.38638103
11.2162	9.812547819
11.2364	9.506503443
11.2567	9.812547819
11.2769	10.42463657
11.2972	8.932670237
11.3174	9.104820199
11.3377	9.410864575
11.3579	9.257842387
11.3782	10.86457536
11.3984	9.143075746
11.4187	8.990053558
11.4389	8.473603673
11.4592	8.703136955
11.4794	8.358837031
11.4996	7.785003826
11.5199	7.287681714
11.5401	7.383320581
11.5604	8.358837031
11.5806	8.798775822
11.6009	8.798775822
11.6211	7.708492731
11.6414	7.440703902
11.6616	8.320581484
11.6819	8.224942617
11.7021	7.899770467
11.7224	7.498087223
11.7426	6.23565417
11.7629	8.454475899
11.7831	7.612853864
11.8034	6.962509564
11.8236	7.459831676
11.8439	7.096403979
11.8641	6.962509564
11.8844	7.249426167
11.9046	7.306809487
11.9248	7.21117062
11.9451	7.459831676
11.9653	6.407804132
11.9856	7.058148432
12.0058	6.178270849
12.0261	6.312165264
12.0463	7.612853864
12.0666	6.503442999
12.0868	6.484315226
12.1071	7.440703902
12.1273	6.809487376
12.1476	7.058148432
12.1678	7.440703902
12.1881	5.96786534
12.2083	7.039020658
12.2286	6.350420811
12.2488	6.120887529
12.2691	6.407804132
12.2893	5.872226473
12.3096	6.637337414
12.3298	5.604437643
12.35	6.713848508
12.3703	5.241009946
12.3905	6.924254017
12.4108	6.006120888
12.431	4.954093344
12.4513	5.795715379
12.4715	6.044376435
12.4918	5.642693191
12.512	6.120887529
12.5323	5.508798776
12.5525	4.858454476
12.5728	5.107115532
12.593	5.049732211
12.6133	5.776587605
12.6335	6.426931905
12.6538	5.202754399
12.674	5.986993114
12.6943	5.508798776
12.7145	5.164498852
12.7348	4.858454476
12.755	4.686304514
12.7752	4.877582249
12.7955	5.030604438
12.8157	4.801071155
12.836	4.858454476
12.8562	4.915837796
12.8765	4.188982402
12.8967	4.514154552
12.917	4.055087988
12.9372	5.068859985
12.9575	3.500382555
12.9777	4.016832441
12.998	5.298393267
13.0182	3.328232594
13.0385	4.150726855
13.0587	4.303749044
13.079	4.093343535
13.0992	3.213465953
13.1195	3.615149197
13.1397	3.710788064
13.16	4.150726855
13.1802	4.150726855
13.2004	3.481254782
13.2207	3.003060444
13.2409	2.27620505
13.2612	3.596021423
13.2814	3.882938026
13.3017	3.615149197
13.3219	2.352716144
13.3422	2.505738332
13.3624	4.265493497
13.3827	3.95944912
13.4029	4.514154552
13.4232	4.590665647
13.4434	2.754399388
13.4637	3.863810252
13.4839	2.371843917
13.5042	3.462127008
13.5244	2.945677123
13.5447	3.729915838
13.5649	4.093343535
13.5852	3.729915838
13.6054	3.30910482
13.6257	3.328232594
13.6459	4.055087988
13.6661	2.199693956
13.6864	3.022188217
13.7066	3.768171385
13.7269	3.156082632
13.7471	3.462127008
13.7674	4.131599082
13.7876	3.519510329
13.8079	2.907421576
13.8281	2.639632747
13.8484	3.2517215
13.8686	3.596021423
13.8889	2.735271614
13.9091	3.672532517
13.9294	2.907421576
13.9496	3.098699311
13.9699	3.194338179
13.9901	2.754399388
14.0104	2.888293803
14.0306	3.213465953
14.0509	3.117827085
14.0711	3.63427697
14.0913	2.524866106
14.1116	3.194338179
14.1318	3.117827085
14.1521	3.289977047
14.1723	2.352716144
14.1926	2.180566182
14.2128	2.830910482
14.2331	2.524866106
14.2533	2.65876052
14.2736	2.543993879
14.2938	2.639632747
14.3141	3.481254782
14.3343	2.697016067
14.3546	2.92654935
14.3748	2.830910482
14.3951	2.65876052
14.4153	3.57689365
14.4356	3.997704667
14.4558	3.997704667
14.4761	5.183626626
14.4963	3.9020658
14.5165	6.006120888
14.5368	4.877582249
14.557	5.432287682
14.5773	5.661820964
14.5975	5.738332058
14.6178	5.508798776
14.638	5.317521041
14.6583	6.369548585
14.6785	5.757459832
14.6988	6.752104055
14.719	5.853098699
14.7393	5.241009946
14.7595	3.940321347
14.7798	3.95944912
14.8	4.246365723
14.8203	3.538638103
14.8405	3.098699311
14.8608	3.347360367
14.881	2.123182862
14.9013	2.161438409
14.9215	1.702371844
14.9417	2.123182862
14.962	2.00841622
14.9822	2.850038256
15.0025	2.00841622
15.0227	2.104055088
15.043	1.511094109
15.0632	1.415455241
15.0835	2.582249426
15.1037	1.013771997
15.124	2.065799541
15.1442	1.338944147
15.1645	0.899005356
15.1847	2.237949503
15.205	2.142310635
15.2252	1.874521806
15.2455	2.123182862
15.2657	2.046671767
15.286	2.830910482
15.3062	1.759755164
15.3265	1.472838562
15.3467	1.817138485
15.367	1.970160673
15.3872	1.989288447
15.4074	2.371843917
15.4277	1.721499617
15.4479	1.3006886
15.4682	1.530221882
15.4884	2.218821729
15.5087	1.68324407
15.5289	1.721499617
15.5492	2.123182862
15.5694	0.631216526
15.5897	1.549349656
15.6099	1.03289977
15.6302	1.262433053
15.6504	0.937260903
15.6707	1.702371844
15.6909	1.931905126
15.7112	1.549349656
15.7314	1.62586075
15.7517	0.803366488
15.7719	1.587605203
15.7922	1.549349656
15.8124	2.00841622
15.8326	0.726855394
15.8529	0.765110941
15.8731	1.606732976
15.8934	1.262433053
15.9136	1.855394032
15.9339	1.874521806
15.9541	2.257077276
15.9744	1.817138485
15.9946	0.918133129
16.0149	1.434583015
16.0351	1.377199694
16.0554	1.224177506
16.0756	0.956388676
16.0959	1.702371844
16.1161	0.860749809
16.1364	1.874521806
16.1566	2.735271614
16.1769	1.855394032
16.1971	1.721499617
16.2174	0.726855394
16.2376	1.472838562
16.2578	2.027543994
16.2781	2.543993879
16.2983	1.013771997
16.3186	0.937260903
16.3388	0.956388676
16.3591	1.68324407
16.3793	1.013771997
16.3996	1.491966335
16.4198	1.912777353
16.4401	1.453710788
16.4603	1.989288447
16.4806	1.740627391
16.5008	2.352716144
16.5211	1.453710788
16.5413	1.415455241
16.5616	0.994644223
16.5818	2.065799541
16.6021	1.702371844
16.6223	1.759755164
16.6426	1.396327467
16.6628	1.166794185
16.683	1.224177506
16.7033	1.03289977
16.7235	0.97551645
16.7438	1.377199694
16.764	0.994644223
16.7843	1.9510329
16.8045	1.62586075
16.8248	1.664116297
16.845	1.472838562
16.8653	1.759755164
16.8855	2.352716144
16.9058	2.180566182
16.926	1.338944147
16.9463	2.295332823
16.9665	1.224177506
16.9868	1.415455241
17.007	1.644988523
17.0273	1.03289977
17.0475	1.03289977
17.0678	1.778882938
17.088	0.860749809
17.1082	1.338944147
17.1285	1.62586075
17.1487	1.128538638
17.169	1.396327467
17.1892	0.784238715
17.2095	1.052027544
17.2297	0.267788829
17.25	1.090283091
17.2702	0.306044376
17.2905	1.587605203
17.3107	2.295332823
17.331	1.970160673
17.3512	1.166794185
17.3715	1.62586075
17.3917	1.415455241
17.412	1.185921959
17.4322	0.688599847
17.4525	1.931905126
17.4727	1.702371844
17.493	1.606732976
17.5132	1.893649579
17.5335	1.587605203
17.5537	1.396327467
17.5739	1.644988523
17.5942	1.721499617
17.6144	1.434583015
17.6347	1.798010712
17.6549	1.472838562
17.6752	1.836266259
17.6954	0.363427697
17.7157	1.052027544
17.7359	0.669472073
17.7562	1.090283091
17.7764	1.052027544
17.7967	1.472838562
17.8169	1.568477429
17.8372	1.166794185
17.8574	0.401683244
17.8777	1.836266259
17.8979	0.822494262
17.9182	0.688599847
17.9384	1.778882938
17.9587	1.262433053
17.9789	1.281560826
17.9991	2.429227238
18.0194	1.319816373
18.0396	2.142310635
18.0599	1.68324407
18.0801	1.35807192
18.1004	0.879877582
18.1206	1.03289977
18.1409	1.778882938
18.1611	1.989288447
18.1814	0.879877582
18.2016	2.046671767
18.2219	1.511094109
18.2421	2.046671767
18.2624	0.745983168
18.2826	1.472838562
18.3029	1.970160673
18.3231	2.104055088
18.3434	1.491966335
18.3636	1.893649579
18.3839	1.224177506
18.4041	0.822494262
18.4243	2.33358837
18.4446	1.319816373
18.4648	2.104055088
18.4851	2.295332823
18.5053	1.62586075
18.5256	0.784238715
18.5458	1.740627391
18.5661	1.224177506
18.5863	1.185921959
18.6066	1.377199694
18.6268	1.989288447
18.6471	1.377199694
18.6673	2.027543994
18.6876	1.472838562
18.7078	1.185921959
18.7281	0.956388676
18.7483	1.396327467
18.7686	1.205049732
18.7888	0.918133129
18.8091	0.726855394
18.8293	1.166794185
18.8495	1.434583015
18.8698	0.592960979
18.89	0.478194338
18.9103	1.606732976
18.9305	0.97551645
18.9508	1.453710788
18.971	1.35807192
18.9913	1.166794185
19.0115	1.205049732
19.0318	0.363427697
19.052	1.281560826
19.0723	0.918133129
19.0925	1.778882938
19.1128	1.702371844
19.133	2.142310635
19.1533	1.798010712
19.1735	1.702371844
19.1938	1.893649579
19.214	2.123182862
19.2343	2.237949503
19.2545	1.052027544
19.2748	1.396327467
19.295	1.472838562
19.3152	0.497322112
19.3355	2.27620505
19.3557	2.065799541
19.376	2.142310635
19.3962	1.109410865
19.4165	0.937260903
19.4367	1.35807192
19.457	1.798010712
19.4772	1.262433053
19.4975	0
19.5177	2.161438409
19.538	2.677888294
19.5582	1.434583015
19.5785	1.530221882
19.5987	1.9510329
19.619	2.161438409
19.6392	1.912777353
19.6595	2.314460597
19.6797	1.453710788
19.7	2.142310635
19.7202	1.931905126
19.7404	1.549349656
19.7607	2.314460597
19.7809	2.543993879
19.8012	1.587605203
19.8214	2.142310635
19.8417	2.161438409
19.8619	1.970160673
19.8822	1.798010712
19.9024	1.62586075
19.9227	2.104055088
19.9429	1.989288447
19.9632	1.319816373
19.9834	2.486610559
20.0037	0.765110941
20.0239	2.065799541
20.0442	1.453710788
20.0644	1.491966335
20.0847	2.027543994
20.1049	1.338944147
20.1252	0.879877582
20.1454	1.702371844
20.1656	1.511094109
20.1859	0.937260903
20.2061	1.874521806
20.2264	1.377199694
20.2466	1.549349656
20.2669	1.798010712
20.2871	1.530221882
20.3074	1.606732976
20.3276	0.6503443
20.3479	1.013771997
20.3681	0.592960979
20.3884	1.530221882
20.4086	1.052027544
20.4289	1.644988523
20.4491	1.013771997
20.4694	2.142310635
20.4896	2.027543994
20.5099	1.3006886
20.5301	1.759755164
20.5504	2.27620505
20.5706	1.453710788
20.5908	1.243305279
20.6111	0.745983168
20.6313	2.237949503
20.6516	1.912777353
20.6718	1.224177506
20.6921	2.237949503
20.7123	1.759755164
20.7326	1.243305279
20.7528	1.9510329
20.7731	1.147666412
20.7933	2.161438409
20.8136	1.893649579
20.8338	0.918133129
20.8541	2.065799541
20.8743	1.721499617
20.8946	1.090283091
20.9148	1.377199694
20.9351	1.931905126
20.9553	2.543993879
20.9756	1.759755164
20.9958	2.257077276
21.016	2.084927314
21.0363	2.410099464
21.0565	1.262433053
21.0768	1.664116297
21.097	1.587605203
21.1173	0.956388676
21.1375	3.060443764
21.1578	1.606732976
21.178	2.65876052
21.1983	1.664116297
21.2185	1.798010712
21.2388	1.415455241
21.259	1.166794185
21.2793	1.855394032
21.2995	0.612088753
21.3198	1.090283091
21.34	1.68324407
21.3603	2.104055088
21.3805	1.970160673
21.4008	1.759755164
21.421	1.68324407
21.4413	1.396327467
21.4615	1.052027544
21.4817	1.109410865
21.502	0.899005356
21.5222	0.631216526
21.5425	2.027543994
21.5627	1.817138485
21.583	1.836266259
21.6032	1.338944147
21.6235	2.027543994
21.6437	1.778882938
21.664	0.612088753
21.6842	1.568477429
21.7045	2.065799541
21.7247	2.00841622
21.745	1.396327467
21.7652	1.836266259
21.7855	1.319816373
21.8057	2.505738332
21.826	2.486610559
21.8462	1.62586075
21.8665	0.994644223
21.8867	1.606732976
21.9069	2.046671767
21.9272	2.639632747
21.9474	2.390971691
21.9677	3.863810252
21.9879	3.978576894
22.0082	3.940321347
22.0284	4.533282326
22.0487	7.000765111
22.0689	6.541698546
22.0892	7.765876052
22.1094	8.301453711
22.1297	8.951798011
22.1499	9.104820199
22.1702	9.257842387
22.1904	10.92195868
22.2107	10.38638103
22.2309	10.09946442
22.2512	10.27161438
22.2714	10.34812548
22.2917	9.238714614
22.3119	8.741392502
22.3321	8.014537108
22.3524	6.656465187
22.3726	6.713848508
22.3929	6.044376435
22.4131	6.025248661
22.4334	6.446059679
22.4536	5.183626626
22.4739	4.954093344
22.4941	6.044376435
22.5144	6.025248661
22.5346	5.91048202
22.5549	6.541698546
22.5751	7.287681714
22.5954	8.052792655
22.6156	7.325937261
22.6359	9.468247896
22.6561	7.59372609
22.6764	7.938026014
22.6966	8.664881408
22.7169	7.86151492
22.7371	7.957153787
22.7573	7.880642693
22.7776	7.000765111
22.7978	8.110175976
22.8181	5.872226473
22.8383	5.642693191
22.8586	5.700076511
22.8788	5.470543229
22.8991	4.28462127
22.9193	3.596021423
22.9396	4.342004591
22.9598	4.590665647
22.9801	3.825554705
23.0003	3.404743688
23.0206	3.270849273
23.0408	2.830910482
23.0611	2.314460597
23.0813	3.060443764
23.1016	2.811782708
23.1218	2.390971691
23.1421	2.964804897
23.1623	2.754399388
23.1826	3.825554705
23.2028	1.874521806
23.223	2.792654935
23.2433	3.347360367
23.2635	3.098699311
23.2838	3.787299158
23.304	2.410099464
23.3243	3.117827085
23.3445	3.232593726
23.3648	3.289977047
23.385	3.366488141
23.4053	3.691660291
23.4255	4.322876817
23.4458	3.863810252
23.466	5.470543229
23.4863	4.399387911
23.5065	4.169854629
23.5268	4.456771232
23.547	4.303749044
23.5673	4.380260138
23.5875	3.787299158
23.6078	4.22723795
23.628	5.279265493
23.6482	5.107115532
23.6685	5.374904361
23.6887	4.322876817
23.709	4.246365723
23.7292	3.328232594
23.7495	4.399387911
23.7697	4.399387911
23.79	4.437643458
23.8102	4.093343535
23.8305	2.543993879
23.8507	3.500382555
23.871	2.180566182
23.8912	4.303749044
23.9115	2.582249426
23.9317	3.175210406
23.952	3.940321347
23.9722	3.481254782
23.9925	3.270849273
24.0127	3.615149197
24.033	2.027543994
24.0532	3.481254782
24.0734	2.352716144
24.0937	2.811782708
24.1139	2.830910482
24.1342	3.442999235
24.1544	3.442999235
24.1747	2.257077276
24.1949	3.232593726
24.2152	2.33358837
24.2354	2.735271614
24.2557	2.773527161
24.2759	2.410099464
24.2962	2.199693956
24.3164	2.754399388
24.3367	2.486610559
24.3569	2.754399388
24.3772	2.65876052
24.3974	2.429227238
24.4177	2.486610559
24.4379	1.817138485
24.4582	3.022188217
24.4784	2.314460597
24.4986	3.060443764
24.5189	2.6013772
24.5391	2.639632747
24.5594	1.989288447
24.5796	2.429227238
24.5999	2.735271614
24.6201	2.505738332
24.6404	3.003060444
24.6606	2.543993879
24.6809	1.836266259
24.7011	1.606732976
24.7214	1.931905126
24.7416	1.9510329
24.7619	2.257077276
24.7821	1.587605203
24.8024	2.161438409
24.8226	2.850038256
24.8429	1.128538638
24.8631	1.778882938
24.8834	2.104055088
24.9036	2.314460597
24.9238	2.448355011
24.9441	1.931905126
24.9643	1.530221882
24.9846	1.702371844
25.0048	1.453710788
25.0251	2.199693956
25.0453	1.836266259
25.0656	2.33358837
25.0858	2.180566182
25.1061	1.434583015
25.1263	2.218821729
25.1466	2.754399388
25.1668	1.9510329
25.1871	1.511094109
25.2073	1.931905126
25.2276	1.377199694
25.2478	1.68324407
25.2681	2.104055088
25.2883	2.410099464
25.3086	2.027543994
25.3288	2.237949503
25.3491	2.524866106
25.3693	1.511094109
25.3895	1.874521806
25.4098	1.587605203
25.43	1.3006886
25.4503	1.702371844
25.4705	2.199693956
25.4908	2.582249426
25.511	2.716143841
25.5313	3.500382555
25.5515	2.065799541
25.5718	2.98393267
25.592	3.538638103
25.6123	2.180566182
25.6325	3.63427697
25.6528	3.997704667
25.673	2.046671767
25.6933	3.462127008
25.7135	3.098699311
25.7338	3.022188217
25.754	2.27620505
25.7743	2.448355011
25.7945	2.620504973
25.8147	2.716143841
25.835	1.989288447
25.8552	2.199693956
25.8755	1.989288447
25.8957	2.218821729
25.916	2.237949503
25.9362	2.467482785
25.9565	1.893649579
25.9767	1.185921959
25.997	2.00841622
26.0172	1.778882938
26.0375	1.511094109
26.0577	1.377199694
26.078	1.052027544
26.0982	1.35807192
26.1185	1.855394032
26.1387	1.281560826
26.159	2.850038256
26.1792	2.295332823
26.1995	2.295332823
26.2197	2.084927314
26.2399	1.166794185
26.2602	1.931905126
26.2804	2.104055088
26.3007	1.912777353
26.3209	2.850038256
26.3412	1.396327467
26.3614	3.30910482
26.3817	2.371843917
26.4019	3.175210406
26.4222	2.33358837
26.4424	2.945677123
26.4627	1.912777353
26.4829	2.371843917
26.5032	2.199693956
26.5234	3.098699311
26.5437	2.620504973
26.5639	2.563121653
26.5842	2.257077276
26.6044	2.410099464
26.6247	2.352716144
26.6449	2.199693956
26.6651	2.620504973
26.6854	2.237949503
26.7056	3.30910482
26.7259	2.945677123
26.7461	2.620504973
26.7664	3.060443764
26.7866	3.098699311
26.8069	2.98393267
26.8271	2.907421576
26.8474	2.084927314
26.8676	3.519510329
26.8879	2.524866106
26.9081	3.729915838
26.9284	3.232593726
26.9486	3.63427697
26.9689	4.303749044
26.9891	4.188982402
27.0094	4.361132364
27.0296	5.241009946
27.0499	7.249426167
27.0701	7.287681714
27.0904	8.530986993
27.1106	9.850803366
27.1308	9.908186687
27.1511	11.20887529
27.1713	12.3565417
27.1916	13.42769702
27.2118	12.62433053
27.2321	12.96863045
27.2523	13.15990819
27.2726	12.87299158
27.2928	13.12165264
27.3131	12.94950268
27.3333	11.87834736
27.3536	10.84544759
27.3738	9.755164499
27.3941	10.34812548
27.4143	8.83703137
27.4346	8.301453711
27.4548	6.962509564
27.4751	6.809487376
27.4953	6.025248661
27.5156	5.986993114
27.5358	4.60979342
27.556	4.514154552
27.5763	4.016832441
27.5965	4.361132364
27.6168	3.9020658
27.637	3.462127008
27.6573	4.093343535
27.6775	4.169854629
27.6978	3.347360367
27.718	3.882938026
27.7383	3.787299158
27.7585	3.442999235
27.7788	3.672532517
27.799	4.954093344
27.8193	4.035960214
27.8395	3.653404744
27.8598	4.361132364
27.88	4.380260138
27.9003	3.921193573
27.9205	5.26013772
27.9408	4.074215761
27.961	4.169854629
27.9812	4.514154552
28.0015	4.628921194
28.0217	4.131599082
28.042	3.749043611
28.0622	4.055087988
28.0825	4.22723795
28.1027	4.265493497
28.123	3.9020658
28.1432	3.596021423
28.1635	3.462127008
28.1837	4.552410099
28.204	3.615149197
28.2242	3.328232594
28.2445	3.978576894
28.2647	3.519510329
28.285	4.169854629
28.3052	3.500382555
28.3255	4.60979342
28.3457	4.437643458
28.366	3.462127008
28.3862	4.475899005
28.4064	4.724560061
28.4267	4.973221117
28.4469	4.322876817
28.4672	4.667176741
28.4874	5.833970926
28.5077	4.992348891
28.5279	5.374904361
28.5482	5.317521041
28.5684	5.394032135
28.5887	5.394032135
28.6089	4.648048967
28.6292	4.724560061
28.6494	6.178270849
28.6697	5.508798776
28.6899	5.527926549
28.7102	6.905126243
28.7304	4.533282326
28.7507	5.241009946
28.7709	6.484315226
28.7912	5.202754399
28.8114	5.986993114
28.8316	5.58530987
28.8519	6.254781943
28.8721	5.221882173
28.8924	5.547054323
28.9126	6.388676358
28.9329	6.962509564
28.9531	6.23565417
28.9734	5.700076511
28.9936	6.790359602
29.0139	6.025248661
29.0341	7.421576129
29.0544	6.675592961
29.0746	6.254781943
29.0949	7.019892884
29.1151	6.61820964
29.1354	5.795715379
29.1556	6.732976282
29.1759	6.752104055
29.1961	7.325937261
29.2164	7.478959449
29.2366	6.981637337
29.2569	9.487375669
29.2771	8.205814843
29.2973	9.21958684
29.3176	10.17597552
29.3378	11.7061974
29.3581	13.75286917
29.3783	14.69013007
29.3986	14.99617445
29.4188	16.88982402
29.4391	18.05661821
29.4593	18.45830145
29.4796	19.66335119
29.4998	17.88446825
29.5201	17.17674063
29.5403	17.96097934
29.5606	15.9716909
29.5808	14.86228003
29.6011	14.8814078
29.6213	12.77735272
29.6416	11.82096404
29.6618	10.94108646
29.6821	9.697781178
29.7023	7.249426167
29.7225	7.192042846
29.7428	7.000765111
29.763	6.694720735
29.7833	6.675592961
29.8035	6.044376435
29.8238	6.273909717
29.844	5.853098699
29.8643	5.986993114
29.8845	5.336648814
29.9048	5.604437643
29.925	6.044376435
29.9453	6.29303749
29.9655	7.59372609
29.9858	8.205814843
30.006	8.550114767
30.0263	9.21958684
30.0465	9.812547819
30.0668	12.7199694
30.087	12.03136955
30.1073	13.71461362
30.1275	15.13006886
30.1477	14.44146901
30.168	14.63274675
30.1882	13.73374139
30.2085	13.27467483
30.2287	12.94950268
30.249	12.33741393
30.2692	12.66258607
30.2895	11.01759755
30.3097	12.03136955
30.33	10.46289212
30.3502	10.29074216
30.3705	9.850803366
30.3907	9.678653405
30.411	9.238714614
30.4312	9.774292272
30.4515	9.850803366
30.4717	10.08033665
30.492	10.15684774
30.5122	10.71155318
30.5325	9.86993114
30.5527	9.812547819
30.5729	10.3289977
30.5932	10.48201989
30.6134	10.02295333
30.6337	9.946442234
30.6539	9.334353481
30.6742	9.200459067
30.6944	8.703136955
30.7147	8.530986993
30.7349	8.530986993
30.7552	8.703136955
30.7754	7.823259373
30.7957	5.833970926
30.8159	7.058148432
30.8362	6.465187452
30.8564	6.94338179
30.8767	7.115531752
30.8969	6.254781943
30.9172	5.795715379
30.9374	6.254781943
30.9577	6.312165264
30.9779	6.120887529
30.9982	6.006120888
31.0184	6.809487376
31.0386	6.61820964
31.0589	5.853098699
31.0791	5.374904361
31.0994	7.000765111
31.1196	7.172915073
31.1399	8.416220352
31.1601	9.468247896
31.1804	8.703136955
31.2006	8.856159143
31.2209	8.129303749
31.2411	8.129303749
31.2614	8.052792655
31.2816	8.83703137
31.3019	7.765876052
31.3221	9.410864575
31.3424	9.506503443
31.3626	8.875286917
31.3829	9.621270084
31.4031	8.89441469
31.4234	9.525631217
31.4436	7.938026014
31.4638	9.391736802
31.4841	9.066564652
31.5043	8.741392502
31.5246	10.1185922
31.5448	10.7689365
31.5651	10.73068095
31.5853	11.85921959
31.6056	11.64881408
31.6258	12.6434583
31.6461	12.12700842
31.6663	12.33741393
31.6866	12.45218057
31.7068	13.23641928
31.7271	13.81025249
31.7473	13.14078041
31.7676	13.9441469
31.7878	15.03442999
31.8081	15.76128539
31.8283	17.04284621
31.8486	17.99923489
31.8688	22.37949503
31.889	25.49732211
31.9093	30.8530987
31.9295	36.61055853
31.9498	46.15531752
31.97	54.87758225
31.9903	64.44146901
32.0105	73.24024484
32.0308	81.56082632
32.051	88.6572303
32.0713	93.30527927
32.0915	97.58990054
32.1118	99.84697781
32.132	100
32.1523	96.90130069
32.1725	93.89824024
32.1928	90.5317521
32.213	84.58301454
32.2333	79.66717674
32.2535	75.21040551
32.2738	72.87681714
32.294	67.63580719
32.3142	64.11629686
32.3345	60.84544759
32.3547	61.95485845
32.375	63.52333588
32.3952	59.50650344
32.4155	61.43840857
32.4357	62.52869166
32.456	60.42463657
32.4762	58.70313695
32.4965	56.15914308
32.5167	53.5386381
32.537	50
32.5572	45.83014537
32.5775	42.17674063
32.5977	37.83473604
32.618	31.19739862
32.6382	28.92119357
32.6585	25.07651109
32.6787	22.1117062
32.699	19.03213466
32.7192	18.09487376
32.7395	14.97704667
32.7597	13.88676358
32.7799	12.08875287
32.8002	12.77735272
32.8204	10.6924254
32.8407	11.18974751
32.8609	9.678653405
32.8812	10.36725325
32.9014	9.372609028
32.9217	8.760520275
32.9419	8.129303749
32.9622	7.21117062
32.9824	6.637337414
33.0027	7.631981637
33.0229	6.216526396
33.0432	6.254781943
33.0634	5.126243305
33.0837	5.661820964
33.1039	5.91048202
33.1242	5.470543229
33.1444	4.724560061
33.1647	5.26013772
33.1849	5.700076511
33.2051	5.853098699
33.2254	5.336648814
33.2456	5.700076511
33.2659	5.451415455
33.2861	5.566182096
33.3064	5.279265493
33.3266	5.183626626
33.3469	6.120887529
33.3671	5.795715379
33.3874	5.145371079
33.4076	5.508798776
33.4279	5.91048202
33.4481	5.451415455
33.4684	4.361132364
33.4886	5.738332058
33.5089	5.030604438
33.5291	5.241009946
33.5494	4.380260138
33.5696	5.738332058
33.5899	6.178270849
33.6101	5.738332058
33.6303	5.700076511
33.6506	4.552410099
33.6708	5.164498852
33.6911	5.489671002
33.7113	5.221882173
33.7316	4.93496557
33.7518	5.96786534
33.7721	5.661820964
33.7923	5.030604438
33.8126	6.23565417
33.8328	4.590665647
33.8531	5.221882173
33.8733	5.96786534
33.8936	5.872226473
33.9138	5.413159908
33.9341	5.680948738
33.9543	5.508798776
33.9746	4.648048967
33.9948	5.126243305
34.0151	5.145371079
34.0353	4.60979342
34.0555	4.686304514
34.0758	4.055087988
34.096	5.279265493
34.1163	5.527926549
34.1365	5.030604438
34.1568	6.407804132
34.177	3.385615914
34.1973	4.552410099
34.2175	4.705432288
34.2378	4.055087988
34.258	4.361132364
34.2783	3.462127008
34.2985	3.806426932
34.3188	4.877582249
34.339	4.514154552
34.3593	4.571537873
34.3795	5.011476664
34.3998	4.093343535
34.42	4.781943382
34.4403	3.729915838
34.4605	6.082631982
34.4807	4.456771232
34.501	4.628921194
34.5212	4.915837796
34.5415	4.705432288
34.5617	5.527926549
34.582	4.820198929
34.6022	5.279265493
34.6225	4.915837796
34.6427	5.394032135
34.663	4.973221117
34.6832	5.355776588
34.7035	4.361132364
34.7237	5.547054323
34.744	5.814843152
34.7642	4.992348891
34.7845	4.322876817
34.8047	5.126243305
34.825	5.317521041
34.8452	4.820198929
34.8655	4.322876817
34.8857	4.074215761
34.906	4.399387911
34.9262	4.877582249
34.9464	5.604437643
34.9667	4.648048967
34.9869	5.394032135
35.0072	4.361132364
35.0274	5.049732211
35.0477	4.552410099
35.0679	4.820198929
35.0882	5.680948738
35.1084	5.96786534
35.1287	5.394032135
35.1489	5.374904361
35.1692	4.915837796
35.1894	5.451415455
35.2097	4.781943382
35.2299	5.91048202
35.2502	6.197398623
35.2704	6.426931905
35.2907	6.159143076
35.3109	6.140015302
35.3312	6.178270849
35.3514	5.833970926
35.3716	7.249426167
35.3919	8.167559296
35.4121	7.86151492
35.4324	8.282325937
35.4526	7.192042846
35.4729	7.612853864
35.4931	8.492731446
35.5134	7.708492731
35.5336	8.83703137
35.5539	7.957153787
35.5741	9.334353481
35.5944	9.143075746
35.6146	9.583014537
35.6349	9.525631217
35.6551	10.17597552
35.6754	10.61591431
35.6956	11.93573068
35.7159	10.4055088
35.7361	11.89747513
35.7564	12.03136955
35.7766	12.01224178
35.7968	12.52869166
35.8171	13.9441469
35.8373	12.26090283
35.8576	13.23641928
35.8778	12.3565417
35.8981	14.61361897
35.9183	11.91660291
35.9386	11.61055853
35.9588	11.84009181
35.9791	12.14613619
35.9993	10.92195868
36.0196	10.4055088
36.0398	10.42463657
36.0601	9.506503443
36.0803	8.722264728
36.1006	8.741392502
36.1208	7.995409334
36.1411	7.785003826
36.1613	9.391736802
36.1816	7.421576129
36.2018	8.224942617
36.222	7.670237184
36.2423	7.306809487
36.2625	6.407804132
36.2828	7.153787299
36.303	6.522570773
36.3233	5.547054323
36.3435	8.339709258
36.3638	7.058148432
36.384	6.140015302
36.4043	6.599081867
36.4245	6.981637337
36.4448	6.044376435
36.465	7.26855394
36.4853	6.675592961
36.5055	6.369548585
36.5258	6.101759755
36.546	6.847742923
36.5663	6.847742923
36.5865	6.752104055
36.6068	7.670237184
36.627	7.115531752
36.6473	6.809487376
36.6675	6.847742923
36.6877	6.465187452
36.708	7.938026014
36.7282	7.785003826
36.7485	7.21117062
36.7687	6.828615149
36.789	6.847742923
36.8092	6.331293037
36.8295	6.713848508
36.8497	7.612853864
36.87	6.197398623
36.8902	6.637337414
36.9105	6.197398623
36.9307	6.197398623
36.951	5.394032135
36.9712	6.446059679
36.9915	6.29303749
37.0117	6.579954093
37.032	5.929609793
37.0522	5.661820964
37.0725	6.369548585
37.0927	5.566182096
37.1129	5.374904361
37.1332	4.628921194
37.1534	6.694720735
37.1737	5.547054323
37.1939	5.91048202
37.2142	6.044376435
37.2344	5.374904361
37.2547	6.120887529
37.2749	5.26013772
37.2952	5.394032135
37.3154	5.317521041
37.3357	5.527926549
37.3559	6.752104055
37.3762	6.426931905
37.3964	6.88599847
37.4167	7.115531752
37.4369	7.077276205
37.4572	7.976281561
37.4774	9.736036725
37.4977	10.55853099
37.5179	12.24177506
37.5381	13.08339709
37.5584	14.53710788
37.5786	15.64651875
37.5989	16.88982402
37.6191	18.32440704
37.6394	18.68783474
37.6596	19.47207345
37.6799	20.94491201
37.7001	21.7482785
37.7204	21.28921194
37.7406	20.63886764
37.7609	21.11706197
37.7811	21.28921194
37.8014	22.16908952
37.8216	22.60902831
37.8419	23.02983933
37.8621	24.48355011
37.8824	22.80030604
37.9026	21.11706197
37.9229	23.46977812
37.9431	22.34123948
37.9633	22.45600612
37.9836	21.88217292
38.0038	19.89288447
38.0241	21.40397858
38.0443	20.52410099
38.0646	19.10864575
38.0848	18.24789594
38.1051	17.08110176
38.1253	15.91430757
38.1456	14.47972456
38.1658	13.73374139
38.1861	12.39479725
38.2063	12.62433053
38.2266	10.67329763
38.2468	9.812547819
38.2671	8.51185922
38.2873	7.555470543
38.3076	7.115531752
38.3278	6.94338179
38.3481	5.604437643
38.3683	6.273909717
38.3885	5.164498852
38.4088	5.355776588
38.429	5.241009946
38.4493	4.973221117
38.4695	5.126243305
38.4898	4.992348891
38.51	5.470543229
38.5303	5.279265493
38.5505	4.150726855
38.5708	4.303749044
38.591	4.303749044
38.6113	4.322876817
38.6315	5.432287682
38.6518	5.432287682
38.672	6.025248661
38.6923	4.590665647
38.7125	5.833970926
38.7328	5.317521041
38.753	5.489671002
38.7733	5.642693191
38.7935	5.413159908
38.8138	4.571537873
38.834	4.781943382
38.8542	5.336648814
38.8745	5.241009946
38.8947	3.9020658
38.915	4.361132364
38.9352	3.117827085
38.9555	4.035960214
38.9757	4.131599082
38.996	4.150726855
39.0162	3.940321347
39.0365	3.596021423
39.0567	2.888293803
39.077	3.519510329
39.0972	3.175210406
39.1175	3.136954858
39.1377	3.997704667
39.158	4.188982402
39.1782	3.729915838
39.1985	3.328232594
39.2187	3.117827085
39.239	3.882938026
39.2592	2.888293803
39.2794	2.964804897
39.2997	4.22723795
39.3199	4.208110176
39.3402	3.940321347
39.3604	3.347360367
39.3807	3.863810252
39.4009	4.342004591
39.4212	3.729915838
39.4414	3.806426932
39.4617	4.22723795
39.4819	4.686304514
39.5022	4.590665647
39.5224	5.298393267
39.5427	5.547054323
39.5629	5.107115532
39.5832	7.440703902
39.6034	6.197398623
39.6237	6.369548585
39.6439	7.153787299
39.6642	8.454475899
39.6844	9.602142311
39.7046	10.61591431
39.7249	11.26625861
39.7451	14.05891354
39.7654	13.69548585
39.7856	14.72838562
39.8059	14.57536343
39.8261	14.97704667
39.8464	16.10558531
39.8666	16.66029074
39.8869	15.78041316
39.9071	14.020658
39.9274	12.56694721
39.9476	12.79648049
39.9679	12.56694721
39.9881	11.18974751
40.0084	9.659525631
40.0286	8.416220352
40.0489	8.990053558
40.0691	7.172915073
40.0894	6.369548585
40.1096	6.331293037
40.1298	5.853098699
40.1501	5.719204285
40.1703	6.312165264
40.1906	5.872226473
40.2108	6.407804132
40.2311	7.383320581
40.2513	7.019892884
40.2716	8.454475899
40.2918	9.181331293
40.3121	8.129303749
40.3323	9.16220352
40.3526	9.047436878
40.3728	8.530986993
40.3931	8.435348125
40.4133	9.16220352
40.4336	9.123947972
40.4538	8.588370314
40.4741	8.779648049
40.4943	7.670237184
40.5146	6.388676358
40.5348	7.134659526
40.5551	6.140015302
40.5753	6.006120888
40.5955	5.719204285
40.6158	6.006120888
40.636	5.183626626
40.6563	4.361132364
40.6765	4.590665647
40.6968	4.60979342
40.717	4.495026779
40.7373	4.514154552
40.7575	4.686304514
40.7778	5.202754399
40.798	4.22723795
40.8183	4.169854629
40.8385	5.049732211
40.8588	4.686304514
40.879	4.839326702
40.8993	5.680948738
40.9195	4.361132364
40.9398	5.26013772
40.96	5.202754399
40.9803	4.743687835
41.0005	5.355776588
41.0207	6.197398623
41.041	5.068859985
41.0612	5.279265493
41.0815	5.298393267
41.1017	5.700076511
41.122	5.489671002
41.1422	4.437643458
41.1625	3.95944912
41.1827	4.628921194
41.203	4.342004591
41.2232	4.533282326
41.2435	4.781943382
41.2637	3.825554705
41.284	4.877582249
41.3042	4.456771232
41.3245	4.399387911
41.3447	5.527926549
41.365	4.93496557
41.3852	4.22723795
41.4055	4.475899005
41.4257	4.380260138
41.4459	5.068859985
41.4662	4.93496557
41.4864	6.120887529
41.5067	4.399387911
41.5269	6.216526396
41.5472	5.317521041
41.5674	5.948737567
41.5877	5.470543229
41.6079	5.221882173
41.6282	5.011476664
41.6484	5.929609793
41.6687	5.451415455
41.6889	5.566182096
41.7092	6.120887529
41.7294	5.853098699
41.7497	5.145371079
41.7699	5.241009946
41.7902	5.145371079
41.8104	5.508798776
41.8307	5.298393267
41.8509	6.063504208
41.8711	5.298393267
41.8914	5.700076511
41.9116	5.566182096
41.9319	6.312165264
41.9521	5.833970926
41.9724	5.661820964
41.9926	5.91048202
42.0129	5.508798776
42.0331	5.814843152
42.0534	4.93496557
42.0736	5.527926549
42.0939	5.087987758
42.1141	6.101759755
42.1344	5.26013772
42.1546	5.126243305
42.1749	5.489671002
42.1951	5.451415455
42.2154	5.929609793
42.2356	4.762815608
42.2559	5.700076511
42.2761	5.700076511
42.2963	5.470543229
42.3166	5.336648814
42.3368	5.547054323
42.3571	4.514154552
42.3773	4.820198929
42.3976	4.93496557
42.4178	5.394032135
42.4381	5.145371079
42.4583	5.011476664
42.4786	5.145371079
42.4988	4.074215761
42.5191	4.303749044
42.5393	3.921193573
42.5596	5.011476664
42.5798	4.055087988
42.6001	4.514154552
42.6203	4.915837796
42.6406	4.571537873
42.6608	4.342004591
42.6811	4.265493497
42.7013	4.552410099
42.7216	4.954093344
42.7418	5.221882173
42.762	3.9020658
42.7823	4.954093344
42.8025	3.270849273
42.8228	3.749043611
42.843	3.57689365
42.8633	3.385615914
42.8835	4.188982402
42.9038	4.208110176
42.924	3.940321347
42.9443	4.22723795
42.9645	4.648048967
42.9848	4.246365723
43.005	3.9020658
43.0253	4.705432288
43.0455	4.475899005
43.0658	5.451415455
43.086	5.700076511
43.1063	4.743687835
43.1265	4.131599082
43.1468	4.762815608
43.167	4.762815608
43.1872	5.241009946
43.2075	5.011476664
43.2277	5.413159908
43.248	4.380260138
43.2682	4.342004591
43.2885	4.648048967
43.3087	5.068859985
43.329	5.107115532
43.3492	5.470543229
43.3695	6.331293037
43.3897	5.795715379
43.41	4.590665647
43.4302	6.254781943
43.4505	5.279265493
43.4707	5.451415455
43.491	4.342004591
43.5112	4.667176741
43.5315	4.801071155
43.5517	4.60979342
43.572	4.342004591
43.5922	4.303749044
43.6124	4.208110176
43.6327	4.380260138
43.6529	3.9020658
43.6732	4.169854629
43.6934	3.691660291
43.7137	3.749043611
43.7339	3.289977047
43.7542	3.672532517
43.7744	3.385615914
43.7947	3.2517215
43.8149	3.596021423
43.8352	2.754399388
43.8554	3.95944912
43.8757	3.57689365
43.8959	4.188982402
43.9162	3.30910482
43.9364	4.208110176
43.9567	4.28462127
43.9769	3.768171385
43.9972	3.423871461
44.0174	3.366488141
44.0376	3.442999235
44.0579	4.035960214
44.0781	3.519510329
44.0984	3.117827085
44.1186	4.303749044
44.1389	4.820198929
44.1591	5.030604438
44.1794	5.853098699
44.1996	6.044376435
44.2199	5.336648814
44.2401	4.954093344
44.2604	6.331293037
44.2806	5.96786534
44.3009	5.489671002
44.3211	5.604437643
44.3414	4.724560061
44.3616	5.96786534
44.3819	5.508798776
44.4021	6.465187452
44.4224	4.705432288
44.4426	5.26013772
44.4629	6.044376435
44.4831	6.23565417
44.5033	5.336648814
44.5236	5.58530987
44.5438	4.858454476
44.5641	5.107115532
44.5843	4.801071155
44.6046	4.399387911
44.6248	4.762815608
44.6451	6.159143076
44.6653	6.044376435
44.6856	6.29303749
44.7058	7.172915073
44.7261	5.929609793
44.7463	6.216526396
44.7666	5.58530987
44.7868	5.738332058
44.8071	6.273909717
44.8273	7.153787299
44.8476	6.159143076
44.8678	6.312165264
44.8881	6.809487376
44.9083	7.325937261
44.9285	6.159143076
44.9488	5.298393267
44.969	6.120887529
44.9893	5.776587605
45.0095	5.795715379
45.0298	5.948737567
45.05	6.082631982
45.0703	5.432287682
45.0905	7.096403979
45.1108	7.555470543
45.131	7.765876052
45.1513	7.612853864
45.1715	6.771231829
45.1918	8.970925784
45.212	7.459831676
45.2323	8.990053558
45.2525	7.612853864
45.2728	8.664881408
45.293	8.339709258
45.3133	9.965570008
45.3335	7.727620505
45.3537	8.091048202
45.374	7.383320581
45.3942	7.134659526
45.4145	7.421576129
45.4347	7.421576129
45.455	8.301453711
45.4752	7.785003826
45.4955	8.492731446
45.5157	8.24407039
45.536	9.640397858
45.5562	10.25248661
45.5765	10.06120888
45.5967	11.6296863
45.617	10.94108646
45.6372	11.993114
45.6575	12.05049732
45.6777	12.66258607
45.698	12.31828615
45.7182	13.88676358
45.7385	13.04514155
45.7587	13.31293037
45.7789	13.27467483
45.7992	12.37566947
45.8194	12.43305279
45.8397	12.16526396
45.8599	10.15684774
45.8802	10.48201989
45.9004	11.11323642
45.9207	9.908186687
45.9409	8.607498087
45.9612	8.51185922
45.9814	7.765876052
46.0017	7.287681714
46.0219	8.033664881
46.0422	7.287681714
46.0624	6.388676358
46.0827	7.230298393
46.1029	6.656465187
46.1232	6.23565417
46.1434	7.039020658
46.1637	6.369548585
46.1839	6.006120888
46.2041	6.866870696
46.2244	7.478959449
46.2446	6.905126243
46.2649	7.000765111
46.2851	8.282325937
46.3054	7.86151492
46.3256	7.53634277
46.3459	8.492731446
46.3661	7.153787299
46.3864	8.588370314
46.4066	9.621270084
46.4269	8.856159143
46.4471	9.257842387
46.4674	10.27161438
46.4876	11.07498087
46.5079	12.77735272
46.5281	14.44146901
46.5484	15.55087988
46.5686	18.26702372
46.5889	21.3848508
46.6091	24.90436113
46.6294	25.70772762
46.6496	28.65340474
46.6698	31.10175976
46.6901	30.89135425
46.7103	35.1185922
46.7306	35.57765876
46.7508	37.89211936
46.7711	34.48737567
46.7913	33.0910482
46.8116	32.32593726
46.8318	29.74368783
46.8521	27.2379495
46.8723	24.7130834
46.8926	20.54322877
46.9128	18.496557
46.9331	16.64116297
46.9533	14.020658
46.9736	11.45753634
46.9938	10.30986993
47.0141	8.779648049
47.0343	8.664881408
47.0546	7.976281561
47.0748	7.689364958
47.095	6.312165264
47.1153	5.527926549
47.1355	5.298393267
47.1558	5.336648814
47.176	4.667176741
47.1963	4.915837796
47.2165	4.418515685
47.2368	4.667176741
47.257	5.241009946
47.2773	4.801071155
47.2975	5.527926549
47.3178	5.508798776
47.338	4.418515685
47.3583	5.642693191
47.3785	4.628921194
47.3988	4.743687835
47.419	4.801071155
47.4393	5.202754399
47.4595	5.719204285
47.4798	4.648048967
47.5	5.470543229
47.5202	4.858454476
47.5405	5.068859985
47.5607	5.164498852
47.581	4.571537873
47.6012	5.719204285
47.6215	5.432287682
47.6417	5.221882173
47.662	5.929609793
47.6822	5.221882173
47.7025	5.030604438
47.7227	5.087987758
47.743	5.355776588
47.7632	5.145371079
47.7835	4.246365723
47.8037	4.131599082
47.824	5.336648814
47.8442	5.164498852
47.8645	4.475899005
47.8847	4.418515685
47.905	4.399387911
47.9252	3.978576894
47.9454	4.016832441
47.9657	4.418515685
47.9859	3.978576894
48.0062	3.768171385
48.0264	4.208110176
48.0467	3.978576894
48.0669	4.896710023
48.0872	3.997704667
48.1074	5.164498852
48.1277	4.896710023
48.1479	5.661820964
48.1682	4.208110176
48.1884	5.087987758
48.2087	5.317521041
48.2289	5.719204285
48.2492	6.828615149
48.2694	5.126243305
48.2897	5.068859985
48.3099	4.896710023
48.3302	5.279265493
48.3504	5.451415455
48.3707	4.915837796
48.3909	4.322876817
48.4111	4.322876817
48.4314	3.729915838
48.4516	3.328232594
48.4719	3.500382555
48.4921	2.735271614
48.5124	2.830910482
48.5326	2.945677123
48.5529	2.907421576
48.5731	3.366488141
48.5934	2.869166029
48.6136	3.481254782
48.6339	2.639632747
48.6541	3.270849273
48.6744	2.945677123
48.6946	3.978576894
48.7149	2.907421576
48.7351	2.390971691
48.7554	2.888293803
48.7756	3.175210406
48.7959	3.481254782
48.8161	2.792654935
48.8363	2.582249426
48.8566	2.850038256
48.8768	2.563121653
48.8971	2.754399388
48.9173	2.6013772
48.9376	2.65876052
48.9578	4.265493497
48.9781	3.787299158
48.9983	3.57689365
49.0186	2.639632747
49.0388	3.117827085
49.0591	3.825554705
49.0793	3.825554705
49.0996	3.136954858
49.1198	3.404743688
49.1401	4.055087988
49.1603	3.538638103
49.1806	3.232593726
49.2008	4.781943382
49.2211	3.481254782
49.2413	3.825554705
49.2615	3.519510329
49.2818	3.557765876
49.302	3.213465953
49.3223	4.265493497
49.3425	4.131599082
49.3628	4.035960214
49.383	3.940321347
49.4033	2.964804897
49.4235	4.112471308
49.4438	4.055087988
49.464	2.735271614
49.4843	3.710788064
49.5045	3.117827085
49.5248	3.347360367
49.545	2.697016067
49.5653	2.945677123
49.5855	2.543993879
49.6058	2.677888294
49.626	2.65876052
49.6463	2.65876052
49.6665	2.716143841
49.6867	2.830910482
49.707	2.677888294
49.7272	3.347360367
49.7475	3.57689365
49.7677	2.754399388
49.788	2.104055088
49.8082	2.486610559
49.8285	2.754399388
49.8487	3.328232594
49.869	2.677888294
49.8892	3.060443764
49.9095	3.098699311
49.9297	3.289977047
49.95	2.123182862
49.9702	2.830910482
49.9905	2.716143841
50.0107	1.9510329
50.031	3.328232594
50.0512	2.811782708
50.0715	2.811782708
50.0917	3.175210406
50.1119	3.117827085
50.1322	3.136954858
50.1524	3.232593726
50.1727	3.270849273
50.1929	2.697016067
50.2132	3.060443764
50.2334	3.232593726
50.2537	3.213465953
50.2739	3.423871461
50.2942	2.582249426
50.3144	3.2517215
50.3347	3.213465953
50.3549	3.156082632
50.3752	3.270849273
50.3954	4.322876817
50.4157	3.825554705
50.4359	3.653404744
50.4562	4.418515685
50.4764	3.30910482
50.4967	4.475899005
50.5169	5.221882173
50.5372	5.470543229
50.5574	5.700076511
50.5776	6.599081867
50.5979	7.153787299
50.6181	7.019892884
50.6384	7.421576129
50.6586	9.296097934
50.6789	9.889058914
50.6991	11.40015302
50.7194	10.15684774
50.7396	10.82631982
50.7599	10.59678653
50.7801	10.96021423
50.8004	11.68706963
50.8206	10.13771997
50.8409	11.17061974
50.8611	10.30986993
50.8814	9.850803366
50.9016	9.965570008
50.9219	8.51185922
50.9421	8.339709258
50.9624	7.708492731
50.9826	7.574598317
51.0028	6.312165264
51.0231	5.891354246
51.0433	5.891354246
51.0636	6.388676358
51.0838	5.049732211
51.1041	4.915837796
51.1243	4.418515685
51.1446	4.342004591
51.1648	4.303749044
51.1851	4.380260138
51.2053	4.590665647
51.2256	4.074215761
51.2458	4.131599082
51.2661	3.710788064
51.2863	4.150726855
51.3066	4.131599082
51.3268	5.26013772
51.3471	4.667176741
51.3673	4.801071155
51.3876	5.107115532
51.4078	4.877582249
51.428	6.828615149
51.4483	5.164498852
51.4685	4.954093344
51.4888	5.221882173
51.509	5.107115532
51.5293	6.025248661
51.5495	6.254781943
51.5698	4.648048967
51.59	4.954093344
51.6103	5.96786534
51.6305	5.776587605
51.6508	4.801071155
51.671	5.145371079
51.6913	5.355776588
51.7115	4.246365723
51.7318	4.552410099
51.752	4.055087988
51.7723	4.839326702
51.7925	4.456771232
51.8128	5.432287682
51.833	3.462127008
51.8532	4.801071155
51.8735	4.992348891
51.8937	3.940321347
51.914	4.322876817
51.9342	5.298393267
51.9545	5.623565417
51.9747	5.049732211
51.995	5.451415455
52.0152	5.757459832
52.0355	6.350420811
52.0557	6.522570773
52.076	5.929609793
52.0962	6.924254017
52.1165	5.547054323
52.1367	5.96786534
52.157	6.120887529
52.1772	5.91048202
52.1975	5.719204285
52.2177	5.317521041
52.238	5.96786534
52.2582	5.929609793
52.2785	5.566182096
52.2987	5.068859985
52.3189	5.068859985
52.3392	5.279265493
52.3594	6.350420811
52.3797	6.752104055
52.3999	5.757459832
52.4202	6.675592961
52.4404	6.446059679
52.4607	6.446059679
52.4809	5.96786534
52.5012	6.025248661
52.5214	6.101759755
52.5417	7.26855394
52.5619	6.790359602
52.5822	6.656465187
52.6024	7.574598317
52.6227	6.771231829
52.6429	6.29303749
52.6632	6.465187452
52.6834	6.828615149
52.7037	6.88599847
52.7239	6.159143076
52.7441	5.508798776
52.7644	5.26013772
52.7846	5.241009946
52.8049	5.317521041
52.8251	5.432287682
52.8454	4.342004591
52.8656	5.508798776
52.8859	4.208110176
52.9061	3.462127008
52.9264	3.385615914
52.9466	4.705432288
52.9669	4.992348891
52.9871	3.710788064
53.0074	4.858454476
53.0276	4.667176741
53.0479	3.825554705
53.0681	4.016832441
53.0884	3.500382555
53.1086	3.978576894
53.1289	3.596021423
53.1491	4.150726855
53.1693	3.328232594
53.1896	4.208110176
53.2098	3.63427697
53.2301	3.404743688
53.2503	3.806426932
53.2706	3.538638103
53.2908	3.041315991
53.3111	3.729915838
53.3313	3.423871461
53.3516	3.844682479
53.3718	3.978576894
53.3921	3.442999235
53.4123	3.95944912
53.4326	3.749043611
53.4528	3.672532517
53.4731	2.811782708
53.4933	3.825554705
53.5136	4.093343535
53.5338	3.366488141
53.5541	4.28462127
53.5743	3.863810252
53.5945	3.289977047
53.6148	4.22723795
53.635	4.093343535
53.6553	3.768171385
53.6755	4.322876817
53.6958	5.030604438
53.716	5.623565417
53.7363	5.738332058
53.7565	6.044376435
53.7768	6.120887529
53.797	6.94338179
53.8173	6.044376435
53.8375	7.077276205
53.8578	8.320581484
53.878	8.014537108
53.8983	7.957153787
53.9185	8.51185922
53.9388	8.779648049
53.959	8.970925784
53.9793	9.755164499
53.9995	8.24407039
54.0197	8.817903596
54.04	8.51185922
54.0602	9.085692425
54.0805	9.123947972
54.1007	8.339709258
54.121	8.83703137
54.1412	8.052792655
54.1615	8.703136955
54.1817	7.077276205
54.202	7.612853864
54.2222	6.656465187
54.2425	6.503442999
54.2627	6.331293037
54.283	4.915837796
54.3032	5.719204285
54.3235	5.413159908
54.3437	4.303749044
54.364	4.648048967
54.3842	4.743687835
54.4045	4.093343535
54.4247	5.030604438
54.445	4.552410099
54.4652	3.385615914
54.4854	4.322876817
54.5057	3.729915838
54.5259	3.997704667
54.5462	3.882938026
54.5664	4.571537873
54.5867	4.055087988
54.6069	3.95944912
54.6272	4.590665647
54.6474	4.112471308
54.6677	4.801071155
54.6879	4.361132364
54.7082	4.915837796
54.7284	4.992348891
54.7487	4.93496557
54.7689	5.757459832
54.7892	5.241009946
54.8094	5.336648814
54.8297	5.700076511
54.8499	6.29303749
54.8702	7.192042846
54.8904	6.637337414
54.9106	7.651109411
54.9309	7.498087223
54.9511	7.555470543
54.9714	8.091048202
54.9916	6.94338179
55.0119	7.86151492
55.0321	7.192042846
55.0524	8.320581484
55.0726	8.435348125
55.0929	7.746748279
55.1131	8.167559296
55.1334	9.047436878
55.1536	8.951798011
55.1739	8.358837031
55.1941	8.014537108
55.2144	7.498087223
55.2346	8.110175976
55.2549	7.230298393
55.2751	8.148431523
55.2954	5.26013772
55.3156	5.623565417
55.3358	6.752104055
55.3561	6.465187452
55.3763	5.164498852
55.3966	5.776587605
55.4168	5.202754399
55.4371	4.380260138
55.4573	4.724560061
55.4776	4.590665647
55.4978	4.820198929
55.5181	4.743687835
55.5383	4.399387911
55.5586	3.57689365
55.5788	3.462127008
55.5991	4.169854629
55.6193	3.385615914
55.6396	2.410099464
55.6598	3.347360367
55.6801	3.729915838
55.7003	3.653404744
55.7206	3.194338179
55.7408	3.404743688
55.761	3.423871461
55.7813	3.30910482
55.8015	2.563121653
55.8218	2.907421576
55.842	3.213465953
55.8623	3.710788064
55.8825	2.677888294
55.9028	3.404743688
55.923	2.257077276
55.9433	2.92654935
55.9635	2.945677123
55.9838	3.270849273
56.004	3.691660291
56.0243	3.768171385
56.0445	3.117827085
56.0648	2.563121653
56.085	2.945677123
56.1053	2.945677123
56.1255	3.328232594
56.1458	2.33358837
56.166	3.500382555
56.1863	2.046671767
56.2065	2.964804897
56.2267	3.289977047
56.247	2.773527161
56.2672	2.697016067
56.2875	3.347360367
56.3077	3.347360367
56.328	3.729915838
56.3482	3.289977047
56.3685	4.456771232
56.3887	3.978576894
56.409	4.246365723
56.4292	3.882938026
56.4495	4.28462127
56.4697	3.615149197
56.49	3.863810252
56.5102	4.246365723
56.5305	4.437643458
56.5507	4.150726855
56.571	3.385615914
56.5912	4.686304514
56.6115	3.519510329
56.6317	4.093343535
56.6519	3.978576894
56.6722	4.342004591
56.6924	3.366488141
56.7127	3.749043611
56.7329	3.691660291
56.7532	2.792654935
56.7734	3.289977047
56.7937	3.921193573
56.8139	3.844682479
56.8342	4.456771232
56.8544	4.399387911
56.8747	4.514154552
56.8949	4.628921194
56.9152	4.399387911
56.9354	5.623565417
56.9557	4.820198929
56.9759	4.533282326
56.9962	5.145371079
57.0164	5.96786534
57.0367	6.407804132
57.0569	5.087987758
57.0771	7.249426167
57.0974	7.440703902
57.1176	6.713848508
57.1379	7.995409334
57.1581	9.621270084
57.1784	9.984697781
57.1986	11.55317521
57.2189	11.93573068
57.2391	11.30451415
57.2594	13.9441469
57.2796	12.98775822
57.2999	14.17368018
57.3201	13.92501913
57.3404	15.55087988
57.3606	15.3213466
57.3809	15.68477429
57.4011	14.61361897
57.4214	14.93879112
57.4416	15.37872992
57.4619	14.49885233
57.4821	13.40856924
57.5023	12.96863045
57.5226	13.56159143
57.5428	12.50956389
57.5631	11.17061974
57.5833	10.82631982
57.6036	11.47666412
57.6238	10.61591431
57.6441	11.17061974
57.6643	10.3289977
57.6846	10.29074216
57.7048	11.47666412
57.7251	11.74445295
57.7453	12.49043611
57.7656	12.22264728
57.7858	14.5944912
57.8061	16.23947972
57.8263	17.02371844
57.8466	20.60061209
57.8668	23.01071155
57.8871	24.80872226
57.9073	28.42387146
57.9275	30.03060444
57.9478	32.24942617
57.968	32.38332058
57.9883	33.51185922
58.0085	33.60749809
58.0288	32.8041316
58.049	33.28232594
58.0693	31.54169855
58.0895	31.10175976
58.1098	27.73527161
58.13	26.77888294
58.1503	27.08492731
58.1705	24.73221117
58.1908	20.94491201
58.211	19.10864575
58.2313	16.52639633
58.2515	15.28309105
58.2718	14.5944912
58.292	13.38944147
58.3123	13.25554705
58.3325	11.38102525
58.3528	10.15684774
58.373	10.23335884
58.3932	9.334353481
58.4135	8.875286917
58.4337	7.938026014
58.454	7.498087223
58.4742	7.153787299
58.4945	7.26855394
58.5147	7.134659526
58.535	6.962509564
58.5552	6.790359602
58.5755	6.465187452
58.5957	5.795715379
58.616	6.063504208
58.6362	7.631981637
58.6565	7.421576129
58.6767	6.732976282
58.697	7.670237184
58.7172	7.019892884
58.7375	7.26855394
58.7577	6.694720735
58.778	6.94338179
58.7982	5.91048202
58.8184	6.29303749
58.8387	5.948737567
58.8589	6.446059679
58.8792	5.795715379
58.8994	6.178270849
58.9197	4.992348891
58.9399	5.489671002
58.9602	5.508798776
58.9804	4.590665647
59.0007	4.954093344
59.0209	4.322876817
59.0412	4.246365723
59.0614	4.074215761
59.0817	4.533282326
59.1019	4.055087988
59.1222	5.221882173
59.1424	4.839326702
59.1627	4.915837796
59.1829	4.896710023
59.2032	6.063504208
59.2234	6.044376435
59.2436	6.178270849
59.2639	7.115531752
59.2841	6.828615149
59.3044	7.746748279
59.3246	7.383320581
59.3449	8.24407039
59.3651	8.224942617
59.3854	7.402448355
59.4056	7.86151492
59.4259	8.18668707
59.4461	7.172915073
59.4664	7.077276205
59.4866	7.574598317
59.5069	7.230298393
59.5271	7.077276205
59.5474	7.249426167
59.5676	7.153787299
59.5879	7.440703902
59.6081	5.891354246
59.6284	6.140015302
59.6486	5.853098699
59.6688	5.661820964
59.6891	5.394032135
59.7093	5.489671002
59.7296	4.801071155
59.7498	5.757459832
59.7701	4.246365723
59.7903	4.418515685
59.8106	3.940321347
59.8308	4.60979342
59.8511	4.093343535
59.8713	4.188982402
59.8916	3.9020658
59.9118	3.95944912
59.9321	4.495026779
59.9523	3.232593726
59.9726	3.653404744
59.9928	3.519510329
60.0131	3.30910482
60.0333	3.615149197
60.0536	3.978576894
60.0738	3.041315991
60.0941	3.653404744
60.1143	3.729915838
60.1345	2.869166029
60.1548	3.175210406
60.175	3.500382555
60.1953	3.672532517
60.2155	2.964804897
60.2358	2.907421576
60.256	3.194338179
60.2763	3.232593726
60.2965	3.500382555
60.3168	4.112471308
60.337	2.697016067
60.3573	3.136954858
60.3775	3.328232594
60.3978	4.839326702
60.418	3.041315991
60.4383	3.022188217
60.4585	3.787299158
60.4788	4.399387911
60.499	4.035960214
60.5193	3.825554705
60.5395	4.093343535
60.5597	4.188982402
60.58	3.940321347
60.6002	4.169854629
60.6205	3.940321347
60.6407	3.729915838
60.661	3.844682479
60.6812	3.213465953
60.7015	3.940321347
60.7217	4.22723795
60.742	3.289977047
60.7622	4.322876817
60.7825	3.079571538
60.8027	4.112471308
60.823	3.442999235
60.8432	4.858454476
60.8635	3.404743688
60.8837	3.538638103
60.904	4.399387911
60.9242	4.380260138
60.9445	4.743687835
60.9647	4.590665647
60.9849	5.107115532
61.0052	4.552410099
61.0254	5.853098699
61.0457	5.623565417
61.0659	5.527926549
61.0862	6.273909717
61.1064	5.26013772
61.1267	6.254781943
61.1469	6.216526396
61.1672	6.23565417
61.1874	6.599081867
61.2077	6.120887529
61.2279	6.312165264
61.2482	7.364192808
61.2684	6.541698546
61.2887	6.140015302
61.3089	5.948737567
61.3292	5.891354246
61.3494	5.355776588
61.3697	5.738332058
61.3899	5.355776588
61.4101	5.642693191
61.4304	6.369548585
61.4506	6.23565417
61.4709	6.828615149
61.4911	7.058148432
61.5114	7.880642693
61.5316	8.397092578
61.5519	9.621270084
61.5721	10.30986993
61.5924	10.06120888
61.6126	10.6924254
61.6329	11.13236419
61.6531	11.4192808
61.6734	12.31828615
61.6936	12.68171385
61.7139	13.19816373
61.7341	13.90589135
61.7544	14.25019128
61.7746	13.63810252
61.7949	13.67635807
61.8151	12.75822494
61.8353	14.00153022
61.8556	13.50420811
61.8758	13.46595256
61.8961	14.8814078
61.9163	12.01224178
61.9366	12.79648049
61.9568	11.80183627
61.9771	12.14613619
61.9973	10.82631982
62.0176	11.47666412
62.0378	10.82631982
62.0581	10.17597552
62.0783	10.92195868
62.0986	8.817903596
62.1188	8.875286917
62.1391	8.798775822
62.1593	8.263198164
62.1796	7.670237184
62.1998	7.421576129
62.2201	7.631981637
62.2403	6.120887529
62.2606	5.872226473
62.2808	5.623565417
62.301	6.312165264
62.3213	5.241009946
62.3415	4.686304514
62.3618	4.667176741
62.382	6.006120888
62.4023	4.131599082
62.4225	4.456771232
62.4428	4.724560061
62.463	3.672532517
62.4833	4.208110176
62.5035	4.093343535
62.5238	4.705432288
62.544	3.232593726
62.5643	3.653404744
62.5845	3.653404744
62.6048	4.112471308
62.625	3.844682479
62.6453	3.825554705
62.6655	4.055087988
62.6858	3.863810252
62.706	3.596021423
62.7262	3.882938026
62.7465	2.945677123
62.7667	3.806426932
62.787	3.557765876
62.8072	3.213465953
62.8275	4.762815608
62.8477	3.806426932
62.868	3.729915838
62.8882	4.418515685
62.9085	5.527926549
62.9287	4.858454476
62.949	3.768171385
62.9692	3.30910482
62.9895	4.686304514
63.0097	4.016832441
63.03	4.150726855
63.0502	3.9020658
63.0705	3.423871461
63.0907	3.596021423
63.111	3.136954858
63.1312	3.156082632
63.1514	2.6013772
63.1717	3.806426932
63.1919	2.964804897
63.2122	3.462127008
63.2324	3.385615914
63.2527	3.404743688
63.2729	2.945677123
63.2932	3.079571538
63.3134	2.582249426
63.3337	2.371843917
63.3539	2.046671767
63.3742	3.462127008
63.3944	3.863810252
63.4147	3.366488141
63.4349	3.003060444
63.4552	3.079571538
63.4754	2.850038256
63.4957	3.079571538
63.5159	2.98393267
63.5362	3.117827085
63.5564	3.596021423
63.5766	3.003060444
63.5969	3.825554705
63.6171	2.677888294
63.6374	2.620504973
63.6576	3.557765876
63.6779	3.117827085
63.6981	2.6013772
63.7184	3.136954858
63.7386	3.041315991
63.7589	3.557765876
63.7791	3.63427697
63.7994	3.538638103
63.8196	3.519510329
63.8399	3.156082632
63.8601	3.538638103
63.8804	2.563121653
63.9006	3.882938026
63.9209	3.710788064
63.9411	3.672532517
63.9614	3.423871461
63.9816	3.117827085
64.0019	3.404743688
64.0221	3.213465953
64.0423	3.672532517
64.0626	3.385615914
64.0828	3.768171385
64.1031	3.749043611
64.1233	2.716143841
64.1436	3.844682479
64.1638	4.322876817
64.1841	3.729915838
64.2043	3.806426932
64.2246	3.30910482
64.2448	4.093343535
64.2651	3.289977047
64.2853	4.724560061
64.3056	4.475899005
64.3258	5.068859985
64.3461	5.126243305
64.3663	4.915837796
64.3866	5.202754399
64.4068	5.604437643
64.4271	6.082631982
64.4473	6.350420811
64.4675	7.115531752
64.4878	6.924254017
64.508	7.019892884
64.5283	7.364192808
64.5485	7.230298393
64.5688	6.732976282
64.589	7.077276205
64.6093	5.91048202
64.6295	6.407804132
64.6498	6.23565417
64.67	6.962509564
64.6903	7.077276205
64.7105	5.432287682
64.7308	6.025248661
64.751	5.738332058
64.7713	5.719204285
64.7915	5.604437643
64.8118	4.858454476
64.832	5.030604438
64.8523	4.514154552
64.8725	4.437643458
64.8927	4.246365723
64.913	3.710788064
64.9332	4.456771232
64.9535	3.500382555
64.9737	3.481254782
64.994	3.691660291
65.0142	2.92654935
65.0345	3.347360367
65.0547	2.964804897
65.075	3.194338179
65.0952	4.571537873
65.1155	2.448355011
65.1357	2.754399388
65.156	3.2517215
65.1762	2.65876052
65.1965	3.022188217
65.2167	2.390971691
65.237	2.964804897
65.2572	3.2517215
65.2775	2.410099464
65.2977	2.486610559
65.3179	3.423871461
65.3382	2.467482785
65.3584	2.773527161
65.3787	2.620504973
65.3989	2.563121653
65.4192	2.92654935
65.4394	1.644988523
65.4597	2.582249426
65.4799	2.582249426
65.5002	3.079571538
65.5204	2.98393267
65.5407	3.117827085
65.5609	2.830910482
65.5812	3.615149197
65.6014	3.328232594
65.6217	3.136954858
65.6419	4.265493497
65.6622	3.787299158
65.6824	3.882938026
65.7027	4.035960214
65.7229	4.342004591
65.7431	3.538638103
65.7634	3.2517215
65.7836	3.863810252
65.8039	4.533282326
65.8241	3.978576894
65.8444	4.093343535
65.8646	3.921193573
65.8849	4.495026779
65.9051	3.30910482
65.9254	3.060443764
65.9456	4.016832441
65.9659	3.442999235
65.9861	3.289977047
66.0064	3.003060444
66.0266	3.079571538
66.0469	4.074215761
66.0671	3.328232594
66.0874	3.175210406
66.1076	3.672532517
66.1279	2.850038256
66.1481	2.65876052
66.1684	3.672532517
66.1886	3.442999235
66.2088	3.653404744
66.2291	2.92654935
66.2493	3.57689365
66.2696	4.322876817
66.2898	3.921193573
66.3101	3.289977047
66.3303	3.749043611
66.3506	3.404743688
66.3708	2.084927314
66.3911	3.462127008
66.4113	2.945677123
66.4316	3.366488141
66.4518	3.500382555
66.4721	3.385615914
66.4923	2.371843917
66.5126	2.697016067
66.5328	3.806426932
66.5531	3.366488141
66.5733	2.830910482
66.5936	3.519510329
66.6138	3.328232594
66.634	4.150726855
66.6543	4.016832441
66.6745	4.877582249
66.6948	4.093343535
66.715	4.28462127
66.7353	3.729915838
66.7555	3.232593726
66.7758	4.150726855
66.796	4.322876817
66.8163	4.705432288
66.8365	4.533282326
66.8568	4.22723795
66.877	4.552410099
66.8973	4.667176741
66.9175	4.322876817
66.9378	4.475899005
66.958	4.22723795
66.9783	3.882938026
66.9985	3.729915838
67.0188	4.801071155
67.039	4.820198929
67.0592	4.380260138
67.0795	4.418515685
67.0997	3.691660291
67.12	4.28462127
67.1402	3.940321347
67.1605	4.437643458
67.1807	4.28462127
67.201	4.552410099
67.2212	4.820198929
67.2415	4.839326702
67.2617	5.374904361
67.282	5.986993114
67.3022	6.216526396
67.3225	6.484315226
67.3427	6.732976282
67.363	7.192042846
67.3832	7.746748279
67.4035	9.640397858
67.4237	9.697781178
67.444	9.372609028
67.4642	9.678653405
67.4844	10.30986993
67.5047	12.10788064
67.5249	11.03672533
67.5452	12.18439174
67.5654	12.16526396
67.5857	13.006886
67.6059	13.14078041
67.6262	12.45218057
67.6464	12.87299158
67.6667	11.6296863
67.6869	13.31293037
67.7072	11.43840857
67.7274	11.80183627
67.7477	11.3427697
67.7679	10.99846978
67.7882	10.25248661
67.8084	10.34812548
67.8287	10.80719204
67.8489	8.167559296
67.8692	7.995409334
67.8894	7.612853864
67.9097	8.033664881
67.9299	7.21117062
67.9501	6.981637337
67.9704	6.732976282
67.9906	6.579954093
68.0109	5.26013772
68.0311	6.790359602
68.0514	5.719204285
68.0716	6.56082632
68.0919	6.446059679
68.1121	5.298393267
68.1324	5.049732211
68.1526	6.063504208
68.1729	6.752104055
68.1931	5.91048202
68.2134	7.517214996
68.2336	6.752104055
68.2539	7.517214996
68.2741	8.492731446
68.2944	8.454475899
68.3146	9.506503443
68.3349	9.315225708
68.3551	9.640397858
68.3753	10.67329763
68.3956	10.30986993
68.4158	10.65416985
68.4361	10.55853099
68.4563	10.4055088
68.4766	10.02295333
68.4968	10.00382555
68.5171	10.0420811
68.5373	9.257842387
68.5576	9.908186687
68.5778	8.492731446
68.5981	8.320581484
68.6183	7.440703902
68.6386	8.435348125
68.6588	6.924254017
68.6791	5.891354246
68.6993	5.489671002
68.7196	5.795715379
68.7398	5.374904361
68.7601	4.533282326
68.7803	4.896710023
68.8005	4.188982402
68.8208	4.648048967
68.841	4.342004591
68.8613	4.361132364
68.8815	4.361132364
68.9018	3.63427697
68.922	4.303749044
68.9423	4.035960214
68.9625	3.844682479
68.9828	3.63427697
69.003	3.557765876
69.0233	3.940321347
69.0435	3.729915838
69.0638	3.9020658
69.084	3.442999235
69.1043	3.481254782
69.1245	4.150726855
69.1448	3.538638103
69.165	3.481254782
69.1853	3.500382555
69.2055	3.825554705
69.2257	3.423871461
69.246	3.328232594
69.2662	4.208110176
69.2865	3.328232594
69.3067	3.596021423
69.327	3.289977047
69.3472	3.423871461
69.3675	3.481254782
69.3877	2.410099464
69.408	2.314460597
69.4282	3.079571538
69.4485	3.519510329
69.4687	2.830910482
69.489	3.270849273
69.5092	3.328232594
69.5295	2.888293803
69.5497	3.366488141
69.57	3.289977047
69.5902	3.060443764
69.6105	2.792654935
69.6307	3.175210406
69.6509	3.041315991
69.6712	3.442999235
69.6914	2.046671767
69.7117	2.33358837
69.7319	3.95944912
69.7522	2.850038256
69.7724	3.423871461
69.7927	2.677888294
69.8129	3.95944912
69.8332	3.615149197
69.8534	2.945677123
69.8737	3.538638103
69.8939	4.399387911
69.9142	3.519510329
69.9344	3.615149197
69.9547	4.437643458
69.9749	3.347360367
69.9952	3.060443764
70.0154	3.825554705
70.0357	2.486610559
70.0559	3.289977047
70.0762	3.156082632
70.0964	3.882938026
70.1166	3.156082632
70.1369	2.811782708
70.1571	3.557765876
70.1774	3.136954858
70.1976	2.505738332
70.2179	2.945677123
70.2381	2.563121653
70.2584	2.390971691
70.2786	2.811782708
70.2989	2.98393267
70.3191	3.117827085
70.3394	3.347360367
70.3596	2.98393267
70.3799	3.729915838
70.4001	2.907421576
70.4204	2.92654935
70.4406	2.735271614
70.4609	2.505738332
70.4811	3.041315991
70.5014	3.481254782
70.5216	3.136954858
70.5418	3.156082632
70.5621	2.716143841
70.5823	2.371843917
70.6026	3.328232594
70.6228	3.232593726
70.6431	3.079571538
70.6633	3.194338179
70.6836	3.2517215
70.7038	2.6013772
70.7241	2.142310635
70.7443	3.557765876
70.7646	2.811782708
70.7848	3.213465953
70.8051	2.792654935
70.8253	2.716143841
70.8456	3.060443764
70.8658	2.945677123
70.8861	2.697016067
70.9063	2.582249426
70.9266	3.213465953
70.9468	3.347360367
70.967	2.945677123
70.9873	3.2517215
71.0075	3.022188217
71.0278	3.672532517
71.048	2.716143841
71.0683	2.199693956
71.0885	3.041315991
71.1088	3.213465953
71.129	3.041315991
71.1493	3.156082632
71.1695	3.30910482
71.1898	3.156082632
71.21	2.620504973
71.2303	3.596021423
71.2505	3.079571538
71.2708	2.773527161
71.291	4.055087988
71.3113	3.557765876
71.3315	2.257077276
71.3518	2.620504973
71.372	3.844682479
71.3922	3.385615914
71.4125	3.060443764
71.4327	3.882938026
71.453	3.500382555
71.4732	3.481254782
71.4935	3.500382555
71.5137	3.691660291
71.534	3.156082632
71.5542	3.596021423
71.5745	3.041315991
71.5947	3.882938026
71.615	2.964804897
71.6352	4.131599082
71.6555	3.328232594
71.6757	3.63427697
71.696	4.112471308
71.7162	4.724560061
71.7365	4.418515685
71.7567	4.743687835
71.777	4.628921194
71.7972	5.719204285
71.8175	5.623565417
71.8377	4.399387911
71.8579	4.188982402
71.8782	3.844682479
71.8984	3.385615914
71.9187	4.743687835
71.9389	5.049732211
71.9592	4.016832441
71.9794	4.495026779
71.9997	3.863810252
72.0199	4.303749044
72.0402	3.653404744
72.0604	4.246365723
72.0807	4.648048967
72.1009	3.882938026
72.1212	3.615149197
72.1414	3.882938026
72.1617	4.208110176
72.1819	3.882938026
72.2022	3.615149197
72.2224	3.538638103
72.2427	4.361132364
72.2629	3.997704667
72.2831	3.404743688
72.3034	3.787299158
72.3236	4.169854629
72.3439	3.729915838
72.3641	3.691660291
72.3844	3.098699311
72.4046	3.2517215
72.4249	3.9020658
72.4451	3.691660291
72.4654	3.423871461
72.4856	4.322876817
72.5059	4.342004591
72.5261	3.57689365
72.5464	4.131599082
72.5666	4.322876817
72.5869	3.30910482
72.6071	3.63427697
72.6274	3.385615914
72.6476	4.169854629
72.6679	4.303749044
72.6881	4.074215761
72.7083	4.150726855
72.7286	3.921193573
72.7488	4.169854629
72.7691	3.653404744
72.7893	4.705432288
72.8096	4.093343535
72.8298	3.997704667
72.8501	4.418515685
72.8703	4.093343535
72.8906	4.628921194
72.9108	4.055087988
72.9311	3.825554705
72.9513	4.705432288
72.9716	4.571537873
72.9918	4.93496557
73.0121	3.978576894
73.0323	5.394032135
73.0526	4.265493497
73.0728	3.423871461
73.0931	3.749043611
73.1133	4.495026779
73.1335	4.28462127
73.1538	3.289977047
73.174	4.533282326
73.1943	4.361132364
73.2145	3.882938026
73.2348	4.954093344
73.255	4.667176741
73.2753	5.049732211
73.2955	5.26013772
73.3158	5.011476664
73.336	4.781943382
73.3563	4.781943382
73.3765	4.342004591
73.3968	4.686304514
73.417	5.068859985
73.4373	4.150726855
73.4575	5.700076511
73.4778	5.068859985
73.498	4.743687835
73.5183	4.992348891
73.5385	4.743687835
73.5587	4.648048967
73.579	3.729915838
73.5992	4.533282326
73.6195	4.877582249
73.6397	4.820198929
73.66	4.208110176
73.6802	4.322876817
73.7005	4.055087988
73.7207	4.495026779
73.741	4.28462127
73.7612	3.921193573
73.7815	3.615149197
73.8017	4.475899005
73.822	4.456771232
73.8422	3.500382555
73.8625	4.074215761
73.8827	3.57689365
73.903	4.495026779
73.9232	3.672532517
73.9435	4.208110176
73.9637	3.921193573
73.984	4.208110176
74.0042	3.232593726
74.0244	4.265493497
74.0447	3.596021423
74.0649	4.380260138
74.0852	4.552410099
74.1054	4.342004591
74.1257	5.58530987
74.1459	4.743687835
74.1662	4.896710023
74.1864	5.183626626
74.2067	6.044376435
74.2269	6.216526396
74.2472	5.948737567
74.2674	6.732976282
74.2877	6.579954093
74.3079	5.661820964
74.3282	6.541698546
74.3484	6.522570773
74.3687	5.853098699
74.3889	5.719204285
74.4092	5.604437643
74.4294	5.26013772
74.4496	4.992348891
74.4699	5.164498852
74.4901	5.202754399
74.5104	5.183626626
74.5306	5.355776588
74.5509	4.705432288
74.5711	5.317521041
74.5914	4.437643458
74.6116	4.628921194
74.6319	5.470543229
74.6521	4.552410099
74.6724	4.514154552
74.6926	4.150726855
74.7129	4.342004591
74.7331	4.514154552
74.7534	3.749043611
74.7736	4.055087988
74.7939	4.131599082
74.8141	4.246365723
74.8344	3.63427697
74.8546	4.093343535
74.8748	4.188982402
74.8951	3.347360367
74.9153	4.628921194
74.9356	4.055087988
74.9558	4.22723795
74.9761	4.246365723
74.9963	3.729915838
75.0166	4.055087988
75.0368	4.22723795
75.0571	4.035960214
75.0773	4.322876817
75.0976	3.175210406
75.1178	4.628921194
75.1381	4.150726855
75.1583	4.074215761
75.1786	4.093343535
75.1988	4.495026779
75.2191	3.882938026
75.2393	4.724560061
75.2596	2.429227238
75.2798	4.016832441
75.3	4.801071155
75.3203	3.653404744
75.3405	5.087987758
75.3608	4.437643458
75.381	4.705432288
75.4013	3.596021423
75.4215	4.074215761
75.4418	3.997704667
75.462	3.538638103
75.4823	3.825554705
75.5025	4.246365723
75.5228	2.811782708
75.543	3.462127008
75.5633	3.863810252
75.5835	3.557765876
75.6038	3.806426932
75.624	2.65876052
75.6443	3.863810252
75.6645	3.30910482
75.6848	3.175210406
75.705	3.519510329
75.7253	2.869166029
75.7455	3.710788064
75.7657	3.347360367
75.786	4.150726855
75.8062	4.303749044
75.8265	3.768171385
75.8467	3.404743688
75.867	3.423871461
75.8872	3.404743688
75.9075	3.462127008
75.9277	3.270849273
75.948	3.385615914
75.9682	3.768171385
75.9885	3.557765876
76.0087	3.289977047
76.029	3.997704667
76.0492	3.423871461
76.0695	3.060443764
76.0897	3.9020658
76.11	3.997704667
76.1302	3.022188217
76.1505	4.055087988
76.1707	3.175210406
76.1909	3.825554705
76.2112	3.978576894
76.2314	4.093343535
76.2517	3.557765876
76.2719	4.418515685
76.2922	4.361132364
76.3124	3.30910482
76.3327	4.22723795
76.3529	3.481254782
76.3732	4.016832441
76.3934	3.442999235
76.4137	3.997704667
76.4339	3.729915838
76.4542	3.366488141
76.4744	3.882938026
76.4947	3.710788064
76.5149	3.022188217
76.5352	3.232593726
76.5554	2.773527161
76.5757	3.691660291
76.5959	3.347360367
76.6161	3.921193573
76.6364	3.156082632
76.6566	3.098699311
76.6769	3.366488141
76.6971	2.123182862
76.7174	3.557765876
76.7376	3.175210406
76.7579	2.620504973
76.7781	3.289977047
76.7984	3.710788064
76.8186	3.2517215
76.8389	3.596021423
76.8591	3.2517215
76.8794	3.347360367
76.8996	3.194338179
76.9199	3.003060444
76.9401	4.074215761
76.9604	2.773527161
76.9806	3.328232594
77.0009	3.022188217
77.0211	3.385615914
77.0413	2.869166029
77.0616	3.63427697
77.0818	3.825554705
77.1021	3.442999235
77.1223	3.003060444
77.1426	3.557765876
77.1628	3.691660291
77.1831	4.265493497
77.2033	2.869166029
77.2236	3.615149197
77.2438	4.169854629
77.2641	3.921193573
77.2843	4.208110176
77.3046	3.117827085
77.3248	3.997704667
77.3451	4.22723795
77.3653	4.188982402
77.3856	4.361132364
77.4058	3.615149197
77.4261	3.022188217
77.4463	4.915837796
77.4665	3.672532517
77.4868	4.686304514
77.507	4.361132364
77.5273	4.342004591
77.5475	5.068859985
77.5678	4.743687835
77.588	5.049732211
77.6083	5.451415455
77.6285	5.91048202
77.6488	7.039020658
77.669	7.689364958
77.6893	9.927314461
77.7095	8.377964805
77.7298	8.798775822
77.75	9.487375669
77.7703	11.0558531
77.7905	11.7061974
77.8108	10.30986993
77.831	10.48201989
77.8513	11.24713083
77.8715	11.45753634
77.8918	12.77735272
77.912	12.22264728
77.9322	12.39479725
77.9525	12.31828615
77.9727	13.44682479
77.993	12.24177506
78.0132	12.2800306
78.0335	11.18974751
78.0537	10.92195868
78.074	10.67329763
78.0942	10.29074216
78.1145	9.009181331
78.1347	9.16220352
78.155	8.339709258
78.1752	8.397092578
78.1955	7.823259373
78.2157	7.192042846
78.236	7.880642693
78.2562	6.503442999
78.2765	6.675592961
78.2967	7.096403979
78.317	6.61820964
78.3372	5.107115532
78.3574	4.762815608
78.3777	5.26013772
78.3979	5.087987758
78.4182	4.456771232
78.4384	4.762815608
78.4587	3.385615914
78.4789	4.93496557
78.4992	3.691660291
78.5194	4.60979342
78.5397	3.347360367
78.5599	3.557765876
78.5802	4.342004591
78.6004	4.781943382
78.6207	3.691660291
78.6409	4.533282326
78.6612	3.557765876
78.6814	4.437643458
78.7017	3.653404744
78.7219	3.385615914
78.7422	3.423871461
78.7624	3.175210406
78.7826	4.896710023
78.8029	4.055087988
78.8231	3.691660291
78.8434	4.265493497
78.8636	4.992348891
78.8839	4.437643458
78.9041	5.164498852
78.9244	5.929609793
78.9446	5.049732211
78.9649	5.126243305
78.9851	5.527926549
79.0054	4.858454476
79.0256	5.164498852
79.0459	4.877582249
79.0661	5.049732211
79.0864	6.140015302
79.1066	4.973221117
79.1269	4.705432288
79.1471	4.781943382
79.1674	4.112471308
79.1876	5.317521041
79.2078	5.317521041
79.2281	5.068859985
79.2483	5.26013772
79.2686	4.686304514
79.2888	5.355776588
79.3091	4.571537873
79.3293	4.437643458
79.3496	4.22723795
79.3698	5.011476664
79.3901	3.30910482
79.4103	4.342004591
79.4306	3.863810252
79.4508	3.749043611
79.4711	4.22723795
79.4913	3.328232594
79.5116	3.136954858
79.5318	3.95944912
79.5521	3.806426932
79.5723	3.519510329
79.5926	3.060443764
79.6128	3.289977047
79.6331	3.404743688
79.6533	2.754399388
79.6735	3.060443764
79.6938	2.448355011
79.714	2.429227238
79.7343	2.907421576
79.7545	2.448355011
79.7748	3.022188217
79.795	3.921193573
79.8153	3.022188217
79.8355	3.481254782
79.8558	2.065799541
79.876	2.888293803
79.8963	3.442999235
79.9165	3.385615914
79.9368	2.620504973
79.957	2.850038256
79.9773	3.404743688
79.9975	3.156082632
