10.0013	1.13848508
10.0216	1.123182862
10.0418	1.129495027
10.0621	1.125669472
10.0823	1.139250191
10.1026	1.118592196
10.1228	1.12165264
10.1431	1.109028309
10.1633	1.11820964
10.1835	1.122991584
10.2038	1.126434583
10.224	1.123374139
10.2443	1.114384086
10.2645	1.120696251
10.2848	1.122609028
10.305	1.108263198
10.3253	1.110558531
10.3455	1.11993114
10.3658	1.115914308
10.386	1.109028309
10.4063	1.113045142
10.4265	1.121843917
10.4468	1.122800306
10.467	1.11820964
10.4873	1.111897475
10.5075	1.119739862
10.5278	1.112471308
10.548	1.105776588
10.5683	1.116296863
10.5885	1.125286917
10.6087	1.132172915
10.629	1.10386381
10.6492	1.109984698
10.6695	1.095638868
10.6897	1.112088753
10.71	1.109219587
10.7302	1.108645754
10.7505	1.107498087
10.7707	1.11572303
10.791	1.103098699
10.8112	1.107115532
10.8315	1.107880643
10.8517	1.108454476
10.872	1.109028309
10.8922	1.110558531
10.9125	1.101568477
10.9327	1.0996557
10.953	1.104246366
10.9732	1.106350421
10.9935	1.106159143
11.0137	1.090474369
11.0339	1.111706197
11.0542	1.111323642
11.0744	1.101951033
11.0947	1.101185922
11.1149	1.091048202
11.1352	1.108263198
11.1554	1.094491201
11.1757	1.096212701
11.1959	1.10386381
11.2162	1.098125478
11.2364	1.095065034
11.2567	1.098125478
11.2769	1.104246366
11.2972	1.089326702
11.3174	1.091048202
11.3377	1.094108646
11.3579	1.092578424
11.3782	1.108645754
11.3984	1.091430757
11.4187	1.089900536
11.4389	1.084736037
11.4592	1.08703137
11.4794	1.08358837
11.4996	1.077850038
11.5199	1.072876817
11.5401	1.073833206
11.5604	1.08358837
11.5806	1.087987758
11.6009	1.087987758
11.6211	1.077084927
11.6414	1.074407039
11.6616	1.083205815
11.6819	1.082249426
11.7021	1.078997705
11.7224	1.074980872
11.7426	1.062356542
11.7629	1.084544759
11.7831	1.076128539
11.8034	1.069625096
11.8236	1.074598317
11.8439	1.07096404
11.8641	1.069625096
11.8844	1.072494262
11.9046	1.073068095
11.9248	1.072111706
11.9451	1.074598317
11.9653	1.064078041
11.9856	1.070581484
12.0058	1.061782708
12.0261	1.063121653
12.0463	1.076128539
12.0666	1.06503443
12.0868	1.064843152
12.1071	1.074407039
12.1273	1.068094874
12.1476	1.070581484
12.1678	1.074407039
12.1881	1.059678653
12.2083	1.070390207
12.2286	1.063504208
12.2488	1.061208875
12.2691	1.064078041
12.2893	1.058722265
12.3096	1.066373374
12.3298	1.056044376
12.35	1.067138485
12.3703	1.052410099
12.3905	1.06924254
12.4108	1.060061209
12.431	1.049540933
12.4513	1.057957154
12.4715	1.060443764
12.4918	1.056426932
12.512	1.061208875
12.5323	1.055087988
12.5525	1.048584545
12.5728	1.051071155
12.593	1.050497322
12.6133	1.057765876
12.6335	1.064269319
12.6538	1.052027544
12.674	1.059869931
12.6943	1.055087988
12.7145	1.051644989
12.7348	1.048584545
12.755	1.046863045
12.7752	1.048775822
12.7955	1.050306044
12.8157	1.048010712
12.836	1.048584545
12.8562	1.049158378
12.8765	1.041889824
12.8967	1.045141546
12.917	1.04055088
12.9372	1.0506886
12.9575	1.035003826
12.9777	1.040168324
12.998	1.052983933
13.0182	1.033282326
13.0385	1.041507269
13.0587	1.04303749
13.079	1.040933435
13.0992	1.03213466
13.1195	1.036151492
13.1397	1.037107881
13.16	1.041507269
13.1802	1.041507269
13.2004	1.034812548
13.2207	1.030030604
13.2409	1.022762051
13.2612	1.035960214
13.2814	1.03882938
13.3017	1.036151492
13.3219	1.023527161
13.3422	1.025057383
13.3624	1.042654935
13.3827	1.039594491
13.4029	1.045141546
13.4232	1.045906656
13.4434	1.027543994
13.4637	1.038638103
13.4839	1.023718439
13.5042	1.03462127
13.5244	1.029456771
13.5447	1.037299158
13.5649	1.040933435
13.5852	1.037299158
13.6054	1.033091048
13.6257	1.033282326
13.6459	1.04055088
13.6661	1.02199694
13.6864	1.030221882
13.7066	1.037681714
13.7269	1.031560826
13.7471	1.03462127
13.7674	1.041315991
13.7876	1.035195103
13.8079	1.029074216
13.8281	1.026396327
13.8484	1.032517215
13.8686	1.035960214
13.8889	1.027352716
13.9091	1.036725325
13.9294	1.029074216
13.9496	1.030986993
13.9699	1.031943382
13.9901	1.027543994
14.0104	1.028882938
14.0306	1.03213466
14.0509	1.031178271
14.0711	1.03634277
14.0913	1.025248661
14.1116	1.031943382
14.1318	1.031178271
14.1521	1.03289977
14.1723	1.023527161
14.1926	1.021805662
14.2128	1.028309105
14.2331	1.025248661
14.2533	1.026587605
14.2736	1.025439939
14.2938	1.026396327
14.3141	1.034812548
14.3343	1.026970161
14.3546	1.029265494
14.3748	1.028309105
14.3951	1.026587605
14.4153	1.035768937
14.4356	1.039977047
14.4558	1.039977047
14.4761	1.051836266
14.4963	1.039020658
14.5165	1.060061209
14.5368	1.048775822
14.557	1.054322877
14.5773	1.05661821
14.5975	1.057383321
14.6178	1.055087988
14.638	1.05317521
14.6583	1.063695486
14.6785	1.057574598
14.6988	1.067521041
14.719	1.058530987
14.7393	1.052410099
14.7595	1.039403213
14.7798	1.039594491
14.8	1.042463657
14.8203	1.035386381
14.8405	1.030986993
14.8608	1.033473604
14.881	1.021231829
14.9013	1.021614384
14.9215	1.017023718
14.9417	1.021231829
14.962	1.020084162
14.9822	1.028500383
15.0025	1.020084162
15.0227	1.021040551
15.043	1.015110941
15.0632	1.014154552
15.0835	1.025822494
15.1037	1.01013772
15.124	1.020657995
15.1442	1.013389441
15.1645	1.008990054
15.1847	1.022379495
15.205	1.021423106
15.2252	1.018745218
15.2455	1.021231829
15.2657	1.020466718
15.286	1.028309105
15.3062	1.017597552
15.3265	1.014728386
15.3467	1.018171385
15.367	1.019701607
15.3872	1.019892884
15.4074	1.023718439
15.4277	1.017214996
15.4479	1.013006886
15.4682	1.015302219
15.4884	1.022188217
15.5087	1.016832441
15.5289	1.017214996
15.5492	1.021231829
15.5694	1.006312165
15.5897	1.015493497
15.6099	1.010328998
15.6302	1.012624331
15.6504	1.009372609
15.6707	1.017023718
15.6909	1.019319051
15.7112	1.015493497
15.7314	1.016258608
15.7517	1.008033665
15.7719	1.015876052
15.7922	1.015493497
15.8124	1.020084162
15.8326	1.007268554
15.8529	1.007651109
15.8731	1.01606733
15.8934	1.012624331
15.9136	1.01855394
15.9339	1.018745218
15.9541	1.022570773
15.9744	1.018171385
15.9946	1.009181331
16.0149	1.01434583
16.0351	1.013771997
16.0554	1.012241775
16.0756	1.009563887
16.0959	1.017023718
16.1161	1.008607498
16.1364	1.018745218
16.1566	1.027352716
16.1769	1.01855394
16.1971	1.017214996
16.2174	1.007268554
16.2376	1.014728386
16.2578	1.02027544
16.2781	1.025439939
16.2983	1.01013772
16.3186	1.009372609
16.3388	1.009563887
16.3591	1.016832441
16.3793	1.01013772
16.3996	1.014919663
16.4198	1.019127774
16.4401	1.014537108
16.4603	1.019892884
16.4806	1.017406274
16.5008	1.023527161
16.5211	1.014537108
16.5413	1.014154552
16.5616	1.009946442
16.5818	1.020657995
16.6021	1.017023718
16.6223	1.017597552
16.6426	1.013963275
16.6628	1.011667942
16.683	1.012241775
16.7033	1.010328998
16.7235	1.009755165
16.7438	1.013771997
16.764	1.009946442
16.7843	1.019510329
16.8045	1.016258608
16.8248	1.016641163
16.845	1.014728386
16.8653	1.017597552
16.8855	1.023527161
16.9058	1.021805662
16.926	1.013389441
16.9463	1.022953328
16.9665	1.012241775
16.9868	1.014154552
17.007	1.016449885
17.0273	1.010328998
17.0475	1.010328998
17.0678	1.017788829
17.088	1.008607498
17.1082	1.013389441
17.1285	1.016258608
17.1487	1.011285386
17.169	1.013963275
17.1892	1.007842387
17.2095	1.010520275
17.2297	1.002677888
17.25	1.010902831
17.2702	1.003060444
17.2905	1.015876052
17.3107	1.022953328
17.331	1.019701607
17.3512	1.011667942
17.3715	1.016258608
17.3917	1.014154552
17.412	1.01185922
17.4322	1.006885998
17.4525	1.019319051
17.4727	1.017023718
17.493	1.01606733
17.5132	1.018936496
17.5335	1.015876052
17.5537	1.013963275
17.5739	1.016449885
17.5942	1.017214996
17.6144	1.01434583
17.6347	1.017980107
17.6549	1.014728386
17.6752	1.018362663
17.6954	1.003634277
17.7157	1.010520275
17.7359	1.006694721
17.7562	1.010902831
17.7764	1.010520275
17.7967	1.014728386
17.8169	1.015684774
17.8372	1.011667942
17.8574	1.004016832
17.8777	1.018362663
17.8979	1.008224943
17.9182	1.006885998
17.9384	1.017788829
17.9587	1.012624331
17.9789	1.012815608
17.9991	1.024292272
18.0194	1.013198164
18.0396	1.021423106
18.0599	1.016832441
18.0801	1.013580719
18.1004	1.008798776
18.1206	1.010328998
18.1409	1.017788829
18.1611	1.019892884
18.1814	1.008798776
18.2016	1.020466718
18.2219	1.015110941
18.2421	1.020466718
18.2624	1.007459832
18.2826	1.014728386
18.3029	1.019701607
18.3231	1.021040551
18.3434	1.014919663
18.3636	1.018936496
18.3839	1.012241775
18.4041	1.008224943
18.4243	1.023335884
18.4446	1.013198164
18.4648	1.021040551
18.4851	1.022953328
18.5053	1.016258608
18.5256	1.007842387
18.5458	1.017406274
18.5661	1.012241775
18.5863	1.01185922
18.6066	1.013771997
18.6268	1.019892884
18.6471	1.013771997
18.6673	1.02027544
18.6876	1.014728386
18.7078	1.01185922
18.7281	1.009563887
18.7483	1.013963275
18.7686	1.012050497
18.7888	1.009181331
18.8091	1.007268554
18.8293	1.011667942
18.8495	1.01434583
18.8698	1.00592961
18.89	1.004781943
18.9103	1.01606733
18.9305	1.009755165
18.9508	1.014537108
18.971	1.013580719
18.9913	1.011667942
19.0115	1.012050497
19.0318	1.003634277
19.052	1.012815608
19.0723	1.009181331
19.0925	1.017788829
19.1128	1.017023718
19.133	1.021423106
19.1533	1.017980107
19.1735	1.017023718
19.1938	1.018936496
19.214	1.021231829
19.2343	1.022379495
19.2545	1.010520275
19.2748	1.013963275
19.295	1.014728386
19.3152	1.004973221
19.3355	1.022762051
19.3557	1.020657995
19.376	1.021423106
19.3962	1.011094109
19.4165	1.009372609
19.4367	1.013580719
19.457	1.017980107
19.4772	1.012624331
19.4975	1
19.5177	1.021614384
19.538	1.026778883
19.5582	1.01434583
19.5785	1.015302219
19.5987	1.019510329
19.619	1.021614384
19.6392	1.019127774
19.6595	1.023144606
19.6797	1.014537108
19.7	1.021423106
19.7202	1.019319051
19.7404	1.015493497
19.7607	1.023144606
19.7809	1.025439939
19.8012	1.015876052
19.8214	1.021423106
19.8417	1.021614384
19.8619	1.019701607
19.8822	1.017980107
19.9024	1.016258608
19.9227	1.021040551
19.9429	1.019892884
19.9632	1.013198164
19.9834	1.024866106
20.0037	1.007651109
20.0239	1.020657995
20.0442	1.014537108
20.0644	1.014919663
20.0847	1.02027544
20.1049	1.013389441
20.1252	1.008798776
20.1454	1.017023718
20.1656	1.015110941
20.1859	1.009372609
20.2061	1.018745218
20.2264	1.013771997
20.2466	1.015493497
20.2669	1.017980107
20.2871	1.015302219
20.3074	1.01606733
20.3276	1.006503443
20.3479	1.01013772
20.3681	1.00592961
20.3884	1.015302219
20.4086	1.010520275
20.4289	1.016449885
20.4491	1.01013772
20.4694	1.021423106
20.4896	1.02027544
20.5099	1.013006886
20.5301	1.017597552
20.5504	1.022762051
20.5706	1.014537108
20.5908	1.012433053
20.6111	1.007459832
20.6313	1.022379495
20.6516	1.019127774
20.6718	1.012241775
20.6921	1.022379495
20.7123	1.017597552
20.7326	1.012433053
20.7528	1.019510329
20.7731	1.011476664
20.7933	1.021614384
20.8136	1.018936496
20.8338	1.009181331
20.8541	1.020657995
20.8743	1.017214996
20.8946	1.010902831
20.9148	1.013771997
20.9351	1.019319051
20.9553	1.025439939
20.9756	1.017597552
20.9958	1.022570773
21.016	1.020849273
21.0363	1.024100995
21.0565	1.012624331
21.0768	1.016641163
21.097	1.015876052
21.1173	1.009563887
21.1375	1.030604438
21.1578	1.01606733
21.178	1.026587605
21.1983	1.016641163
21.2185	1.017980107
21.2388	1.014154552
21.259	1.011667942
21.2793	1.01855394
21.2995	1.006120888
21.3198	1.010902831
21.34	1.016832441
21.3603	1.021040551
21.3805	1.019701607
21.4008	1.017597552
21.421	1.016832441
21.4413	1.013963275
21.4615	1.010520275
21.4817	1.011094109
21.502	1.008990054
21.5222	1.006312165
21.5425	1.02027544
21.5627	1.018171385
21.583	1.018362663
21.6032	1.013389441
21.6235	1.02027544
21.6437	1.017788829
21.664	1.006120888
21.6842	1.015684774
21.7045	1.020657995
21.7247	1.020084162
21.745	1.013963275
21.7652	1.018362663
21.7855	1.013198164
21.8057	1.025057383
21.826	1.024866106
21.8462	1.016258608
21.8665	1.009946442
21.8867	1.01606733
21.9069	1.020466718
21.9272	1.026396327
21.9474	1.023909717
21.9677	1.038638103
21.9879	1.039785769
22.0082	1.039403213
22.0284	1.045332823
22.0487	1.070007651
22.0689	1.065416985
22.0892	1.077658761
22.1094	1.083014537
22.1297	1.08951798
22.1499	1.091048202
22.1702	1.092578424
22.1904	1.109219587
22.2107	1.10386381
22.2309	1.100994644
22.2512	1.102716144
22.2714	1.103481255
22.2917	1.092387146
22.3119	1.087413925
22.3321	1.080145371
22.3524	1.066564652
22.3726	1.067138485
22.3929	1.060443764
22.4131	1.060252487
22.4334	1.064460597
22.4536	1.051836266
22.4739	1.049540933
22.4941	1.060443764
22.5144	1.060252487
22.5346	1.05910482
22.5549	1.065416985
22.5751	1.072876817
22.5954	1.080527927
22.6156	1.073259373
22.6359	1.094682479
22.6561	1.075937261
22.6764	1.07938026
22.6966	1.086648814
22.7169	1.078615149
22.7371	1.079571538
22.7573	1.078806427
22.7776	1.070007651
22.7978	1.08110176
22.8181	1.058722265
22.8383	1.056426932
22.8586	1.057000765
22.8788	1.054705432
22.8991	1.042846213
22.9193	1.035960214
22.9396	1.043420046
22.9598	1.045906656
22.9801	1.038255547
23.0003	1.034047437
23.0206	1.032708493
23.0408	1.028309105
23.0611	1.023144606
23.0813	1.030604438
23.1016	1.028117827
23.1218	1.023909717
23.1421	1.029648049
23.1623	1.027543994
23.1826	1.038255547
23.2028	1.018745218
23.223	1.027926549
23.2433	1.033473604
23.2635	1.030986993
23.2838	1.037872992
23.304	1.024100995
23.3243	1.031178271
23.3445	1.032325937
23.3648	1.03289977
23.385	1.033664881
23.4053	1.036916603
23.4255	1.043228768
23.4458	1.038638103
23.466	1.054705432
23.4863	1.043993879
23.5065	1.041698546
23.5268	1.044567712
23.547	1.04303749
23.5673	1.043802601
23.5875	1.037872992
23.6078	1.04227238
23.628	1.052792655
23.6482	1.051071155
23.6685	1.053749044
23.6887	1.043228768
23.709	1.042463657
23.7292	1.033282326
23.7495	1.043993879
23.7697	1.043993879
23.79	1.044376435
23.8102	1.040933435
23.8305	1.025439939
23.8507	1.035003826
23.871	1.021805662
23.8912	1.04303749
23.9115	1.025822494
23.9317	1.031752104
23.952	1.039403213
23.9722	1.034812548
23.9925	1.032708493
24.0127	1.036151492
24.033	1.02027544
24.0532	1.034812548
24.0734	1.023527161
24.0937	1.028117827
24.1139	1.028309105
24.1342	1.034429992
24.1544	1.034429992
24.1747	1.022570773
24.1949	1.032325937
24.2152	1.023335884
24.2354	1.027352716
24.2557	1.027735272
24.2759	1.024100995
24.2962	1.02199694
24.3164	1.027543994
24.3367	1.024866106
24.3569	1.027543994
24.3772	1.026587605
24.3974	1.024292272
24.4177	1.024866106
24.4379	1.018171385
24.4582	1.030221882
24.4784	1.023144606
24.4986	1.030604438
24.5189	1.026013772
24.5391	1.026396327
24.5594	1.019892884
24.5796	1.024292272
24.5999	1.027352716
24.6201	1.025057383
24.6404	1.030030604
24.6606	1.025439939
24.6809	1.018362663
24.7011	1.01606733
24.7214	1.019319051
24.7416	1.019510329
24.7619	1.022570773
24.7821	1.015876052
24.8024	1.021614384
24.8226	1.028500383
24.8429	1.011285386
24.8631	1.017788829
24.8834	1.021040551
24.9036	1.023144606
24.9238	1.02448355
24.9441	1.019319051
24.9643	1.015302219
24.9846	1.017023718
25.0048	1.014537108
25.0251	1.02199694
25.0453	1.018362663
25.0656	1.023335884
25.0858	1.021805662
25.1061	1.01434583
25.1263	1.022188217
25.1466	1.027543994
25.1668	1.019510329
25.1871	1.015110941
25.2073	1.019319051
25.2276	1.013771997
25.2478	1.016832441
25.2681	1.021040551
25.2883	1.024100995
25.3086	1.02027544
25.3288	1.022379495
25.3491	1.025248661
25.3693	1.015110941
25.3895	1.018745218
25.4098	1.015876052
25.43	1.013006886
25.4503	1.017023718
25.4705	1.02199694
25.4908	1.025822494
25.511	1.027161438
25.5313	1.035003826
25.5515	1.020657995
25.5718	1.029839327
25.592	1.035386381
25.6123	1.021805662
25.6325	1.03634277
25.6528	1.039977047
25.673	1.020466718
25.6933	1.03462127
25.7135	1.030986993
25.7338	1.030221882
25.754	1.022762051
25.7743	1.02448355
25.7945	1.02620505
25.8147	1.027161438
25.835	1.019892884
25.8552	1.02199694
25.8755	1.019892884
25.8957	1.022188217
25.916	1.022379495
25.9362	1.024674828
25.9565	1.018936496
25.9767	1.01185922
25.997	1.020084162
26.0172	1.017788829
26.0375	1.015110941
26.0577	1.013771997
26.078	1.010520275
26.0982	1.013580719
26.1185	1.01855394
26.1387	1.012815608
26.159	1.028500383
26.1792	1.022953328
26.1995	1.022953328
26.2197	1.020849273
26.2399	1.011667942
26.2602	1.019319051
26.2804	1.021040551
26.3007	1.019127774
26.3209	1.028500383
26.3412	1.013963275
26.3614	1.033091048
26.3817	1.023718439
26.4019	1.031752104
26.4222	1.023335884
26.4424	1.029456771
26.4627	1.019127774
26.4829	1.023718439
26.5032	1.02199694
26.5234	1.030986993
26.5437	1.02620505
26.5639	1.025631217
26.5842	1.022570773
26.6044	1.024100995
26.6247	1.023527161
26.6449	1.02199694
26.6651	1.02620505
26.6854	1.022379495
26.7056	1.033091048
26.7259	1.029456771
26.7461	1.02620505
26.7664	1.030604438
26.7866	1.030986993
26.8069	1.029839327
26.8271	1.029074216
26.8474	1.020849273
26.8676	1.035195103
26.8879	1.025248661
26.9081	1.037299158
26.9284	1.032325937
26.9486	1.03634277
26.9689	1.04303749
26.9891	1.041889824
27.0094	1.043611324
27.0296	1.052410099
27.0499	1.072494262
27.0701	1.072876817
27.0904	1.08530987
27.1106	1.098508034
27.1308	1.099081867
27.1511	1.112088753
27.1713	1.123565417
27.1916	1.13427697
27.2118	1.126243305
27.2321	1.129686305
27.2523	1.131599082
27.2726	1.128729916
27.2928	1.131216526
27.3131	1.129495027
27.3333	1.118783474
27.3536	1.108454476
27.3738	1.097551645
27.3941	1.103481255
27.4143	1.088370314
27.4346	1.083014537
27.4548	1.069625096
27.4751	1.068094874
27.4953	1.060252487
27.5156	1.059869931
27.5358	1.046097934
27.556	1.045141546
27.5763	1.040168324
27.5965	1.043611324
27.6168	1.039020658
27.637	1.03462127
27.6573	1.040933435
27.6775	1.041698546
27.6978	1.033473604
27.718	1.03882938
27.7383	1.037872992
27.7585	1.034429992
27.7788	1.036725325
27.799	1.049540933
27.8193	1.040359602
27.8395	1.036534047
27.8598	1.043611324
27.88	1.043802601
27.9003	1.039211936
27.9205	1.052601377
27.9408	1.040742158
27.961	1.041698546
27.9812	1.045141546
28.0015	1.046289212
28.0217	1.041315991
28.042	1.037490436
28.0622	1.04055088
28.0825	1.04227238
28.1027	1.042654935
28.123	1.039020658
28.1432	1.035960214
28.1635	1.03462127
28.1837	1.045524101
28.204	1.036151492
28.2242	1.033282326
28.2445	1.039785769
28.2647	1.035195103
28.285	1.041698546
28.3052	1.035003826
28.3255	1.046097934
28.3457	1.044376435
28.366	1.03462127
28.3862	1.04475899
28.4064	1.047245601
28.4267	1.049732211
28.4469	1.043228768
28.4672	1.046671767
28.4874	1.058339709
28.5077	1.049923489
28.5279	1.053749044
28.5482	1.05317521
28.5684	1.053940321
28.5887	1.053940321
28.6089	1.04648049
28.6292	1.047245601
28.6494	1.061782708
28.6697	1.055087988
28.6899	1.055279265
28.7102	1.069051262
28.7304	1.045332823
28.7507	1.052410099
28.7709	1.064843152
28.7912	1.052027544
28.8114	1.059869931
28.8316	1.055853099
28.8519	1.062547819
28.8721	1.052218822
28.8924	1.055470543
28.9126	1.063886764
28.9329	1.069625096
28.9531	1.062356542
28.9734	1.057000765
28.9936	1.067903596
29.0139	1.060252487
29.0341	1.074215761
29.0544	1.06675593
29.0746	1.062547819
29.0949	1.070198929
29.1151	1.066182096
29.1354	1.057957154
29.1556	1.067329763
29.1759	1.067521041
29.1961	1.073259373
29.2164	1.074789594
29.2366	1.069816373
29.2569	1.094873757
29.2771	1.082058148
29.2973	1.092195868
29.3176	1.101759755
29.3378	1.117061974
29.3581	1.137528692
29.3783	1.146901301
29.3986	1.149961745
29.4188	1.16889824
29.4391	1.180566182
29.4593	1.184583015
29.4796	1.196633512
29.4998	1.178844683
29.5201	1.171767406
29.5403	1.179609793
29.5606	1.159716909
29.5808	1.1486228
29.6011	1.148814078
29.6213	1.127773527
29.6416	1.11820964
29.6618	1.109410865
29.6821	1.096977812
29.7023	1.072494262
29.7225	1.071920428
29.7428	1.070007651
29.763	1.066947207
29.7833	1.06675593
29.8035	1.060443764
29.8238	1.062739097
29.844	1.058530987
29.8643	1.059869931
29.8845	1.053366488
29.9048	1.056044376
29.925	1.060443764
29.9453	1.062930375
29.9655	1.075937261
29.9858	1.082058148
30.006	1.085501148
30.0263	1.092195868
30.0465	1.098125478
30.0668	1.127199694
30.087	1.120313696
30.1073	1.137146136
30.1275	1.151300689
30.1477	1.14441469
30.168	1.146327468
30.1882	1.137337414
30.2085	1.132746748
30.2287	1.129495027
30.249	1.123374139
30.2692	1.126625861
30.2895	1.110175976
30.3097	1.120313696
30.33	1.104628921
30.3502	1.102907422
30.3705	1.098508034
30.3907	1.096786534
30.411	1.092387146
30.4312	1.097742923
30.4515	1.098508034
30.4717	1.100803367
30.492	1.101568477
30.5122	1.107115532
30.5325	1.098699311
30.5527	1.098125478
30.5729	1.103289977
30.5932	1.104820199
30.6134	1.100229533
30.6337	1.099464422
30.6539	1.093343535
30.6742	1.092004591
30.6944	1.08703137
30.7147	1.08530987
30.7349	1.08530987
30.7552	1.08703137
30.7754	1.078232594
30.7957	1.058339709
30.8159	1.070581484
30.8362	1.064651875
30.8564	1.069433818
30.8767	1.071155318
30.8969	1.062547819
30.9172	1.057957154
30.9374	1.062547819
30.9577	1.063121653
30.9779	1.061208875
30.9982	1.060061209
31.0184	1.068094874
31.0386	1.066182096
31.0589	1.058530987
31.0791	1.053749044
31.0994	1.070007651
31.1196	1.071729151
31.1399	1.084162204
31.1601	1.094682479
31.1804	1.08703137
31.2006	1.088561591
31.2209	1.081293037
31.2411	1.081293037
31.2614	1.080527927
31.2816	1.088370314
31.3019	1.077658761
31.3221	1.094108646
31.3424	1.095065034
31.3626	1.088752869
31.3829	1.096212701
31.4031	1.088944147
31.4234	1.095256312
31.4436	1.07938026
31.4638	1.093917368
31.4841	1.090665647
31.5043	1.087413925
31.5246	1.101185922
31.5448	1.107689365
31.5651	1.10730681
31.5853	1.118592196
31.6056	1.116488141
31.6258	1.126434583
31.6461	1.121270084
31.6663	1.123374139
31.6866	1.124521806
31.7068	1.132364193
31.7271	1.138102525
31.7473	1.131407804
31.7676	1.139441469
31.7878	1.1503443
31.8081	1.157612854
31.8283	1.170428462
31.8486	1.179992349
31.8688	1.22379495
31.889	1.254973221
31.9093	1.308530987
31.9295	1.366105585
31.9498	1.461553175
31.97	1.548775823
31.9903	1.64441469
32.0105	1.732402448
32.0308	1.815608263
32.051	1.886572303
32.0713	1.933052793
32.0915	1.975899005
32.1118	1.998469778
32.132	2
32.1523	1.969013007
32.1725	1.938982402
32.1928	1.905317521
32.213	1.845830145
32.2333	1.796671767
32.2535	1.752104055
32.2738	1.728768171
32.294	1.676358072
32.3142	1.641162969
32.3345	1.608454476
32.3547	1.619548585
32.375	1.635233359
32.3952	1.595065034
32.4155	1.614384086
32.4357	1.625286917
32.456	1.604246366
32.4762	1.58703137
32.4965	1.561591431
32.5167	1.535386381
32.537	1.5
32.5572	1.458301454
32.5775	1.421767406
32.5977	1.37834736
32.618	1.311973986
32.6382	1.289211936
32.6585	1.250765111
32.6787	1.221117062
32.699	1.190321347
32.7192	1.180948738
32.7395	1.149770467
32.7597	1.138867636
32.7799	1.120887529
32.8002	1.127773527
32.8204	1.106924254
32.8407	1.111897475
32.8609	1.096786534
32.8812	1.103672533
32.9014	1.09372609
32.9217	1.087605203
32.9419	1.081293037
32.9622	1.072111706
32.9824	1.066373374
33.0027	1.076319816
33.0229	1.062165264
33.0432	1.062547819
33.0634	1.051262433
33.0837	1.05661821
33.1039	1.05910482
33.1242	1.054705432
33.1444	1.047245601
33.1647	1.052601377
33.1849	1.057000765
33.2051	1.058530987
33.2254	1.053366488
33.2456	1.057000765
33.2659	1.054514155
33.2861	1.055661821
33.3064	1.052792655
33.3266	1.051836266
33.3469	1.061208875
33.3671	1.057957154
33.3874	1.051453711
33.4076	1.055087988
33.4279	1.05910482
33.4481	1.054514155
33.4684	1.043611324
33.4886	1.057383321
33.5089	1.050306044
33.5291	1.052410099
33.5494	1.043802601
33.5696	1.057383321
33.5899	1.061782708
33.6101	1.057383321
33.6303	1.057000765
33.6506	1.045524101
33.6708	1.051644989
33.6911	1.05489671
33.7113	1.052218822
33.7316	1.049349656
33.7518	1.059678653
33.7721	1.05661821
33.7923	1.050306044
33.8126	1.062356542
33.8328	1.045906656
33.8531	1.052218822
33.8733	1.059678653
33.8936	1.058722265
33.9138	1.054131599
33.9341	1.056809487
33.9543	1.055087988
33.9746	1.04648049
33.9948	1.051262433
34.0151	1.051453711
34.0353	1.046097934
34.0555	1.046863045
34.0758	1.04055088
34.096	1.052792655
34.1163	1.055279265
34.1365	1.050306044
34.1568	1.064078041
34.177	1.033856159
34.1973	1.045524101
34.2175	1.047054323
34.2378	1.04055088
34.258	1.043611324
34.2783	1.03462127
34.2985	1.038064269
34.3188	1.048775822
34.339	1.045141546
34.3593	1.045715379
34.3795	1.050114767
34.3998	1.040933435
34.42	1.047819434
34.4403	1.037299158
34.4605	1.06082632
34.4807	1.044567712
34.501	1.046289212
34.5212	1.049158378
34.5415	1.047054323
34.5617	1.055279265
34.582	1.048201989
34.6022	1.052792655
34.6225	1.049158378
34.6427	1.053940321
34.663	1.049732211
34.6832	1.053557766
34.7035	1.043611324
34.7237	1.055470543
34.744	1.058148432
34.7642	1.049923489
34.7845	1.043228768
34.8047	1.051262433
34.825	1.05317521
34.8452	1.048201989
34.8655	1.043228768
34.8857	1.040742158
34.906	1.043993879
34.9262	1.048775822
34.9464	1.056044376
34.9667	1.04648049
34.9869	1.053940321
35.0072	1.043611324
35.0274	1.050497322
35.0477	1.045524101
35.0679	1.048201989
35.0882	1.056809487
35.1084	1.059678653
35.1287	1.053940321
35.1489	1.053749044
35.1692	1.049158378
35.1894	1.054514155
35.2097	1.047819434
35.2299	1.05910482
35.2502	1.061973986
35.2704	1.064269319
35.2907	1.061591431
35.3109	1.061400153
35.3312	1.061782708
35.3514	1.058339709
35.3716	1.072494262
35.3919	1.081675593
35.4121	1.078615149
35.4324	1.082823259
35.4526	1.071920428
35.4729	1.076128539
35.4931	1.084927314
35.5134	1.077084927
35.5336	1.088370314
35.5539	1.079571538
35.5741	1.093343535
35.5944	1.091430757
35.6146	1.095830145
35.6349	1.095256312
35.6551	1.101759755
35.6754	1.106159143
35.6956	1.119357307
35.7159	1.104055088
35.7361	1.118974751
35.7564	1.120313696
35.7766	1.120122418
35.7968	1.125286917
35.8171	1.139441469
35.8373	1.122609028
35.8576	1.132364193
35.8778	1.123565417
35.8981	1.14613619
35.9183	1.119166029
35.9386	1.116105585
35.9588	1.118400918
35.9791	1.121461362
35.9993	1.109219587
36.0196	1.104055088
36.0398	1.104246366
36.0601	1.095065034
36.0803	1.087222647
36.1006	1.087413925
36.1208	1.079954093
36.1411	1.077850038
36.1613	1.093917368
36.1816	1.074215761
36.2018	1.082249426
36.222	1.076702372
36.2423	1.073068095
36.2625	1.064078041
36.2828	1.071537873
36.303	1.065225708
36.3233	1.055470543
36.3435	1.083397093
36.3638	1.070581484
36.384	1.061400153
36.4043	1.065990819
36.4245	1.069816373
36.4448	1.060443764
36.465	1.072685539
36.4853	1.06675593
36.5055	1.063695486
36.5258	1.061017598
36.546	1.068477429
36.5663	1.068477429
36.5865	1.067521041
36.6068	1.076702372
36.627	1.071155318
36.6473	1.068094874
36.6675	1.068477429
36.6877	1.064651875
36.708	1.07938026
36.7282	1.077850038
36.7485	1.072111706
36.7687	1.068286151
36.789	1.068477429
36.8092	1.06331293
36.8295	1.067138485
36.8497	1.076128539
36.87	1.061973986
36.8902	1.066373374
36.9105	1.061973986
36.9307	1.061973986
36.951	1.053940321
36.9712	1.064460597
36.9915	1.062930375
37.0117	1.065799541
37.032	1.059296098
37.0522	1.05661821
37.0725	1.063695486
37.0927	1.055661821
37.1129	1.053749044
37.1332	1.046289212
37.1534	1.066947207
37.1737	1.055470543
37.1939	1.05910482
37.2142	1.060443764
37.2344	1.053749044
37.2547	1.061208875
37.2749	1.052601377
37.2952	1.053940321
37.3154	1.05317521
37.3357	1.055279265
37.3559	1.067521041
37.3762	1.064269319
37.3964	1.068859985
37.4167	1.071155318
37.4369	1.070772762
37.4572	1.079762816
37.4774	1.097360367
37.4977	1.10558531
37.5179	1.122417751
37.5381	1.130833971
37.5584	1.145371079
37.5786	1.156465188
37.5989	1.16889824
37.6191	1.18324407
37.6394	1.186878347
37.6596	1.194720735
37.6799	1.20944912
37.7001	1.217482785
37.7204	1.212892119
37.7406	1.206388676
37.7609	1.21117062
37.7811	1.212892119
37.8014	1.221690895
37.8216	1.226090283
37.8419	1.230298393
37.8621	1.244835501
37.8824	1.22800306
37.9026	1.21117062
37.9229	1.234697781
37.9431	1.223412395
37.9633	1.224560061
37.9836	1.218821729
38.0038	1.198928845
38.0241	1.214039786
38.0443	1.20524101
38.0646	1.191086458
38.0848	1.182478959
38.1051	1.170811018
38.1253	1.159143076
38.1456	1.144797246
38.1658	1.137337414
38.1861	1.123947973
38.2063	1.126243305
38.2266	1.106732976
38.2468	1.098125478
38.2671	1.085118592
38.2873	1.075554705
38.3076	1.071155318
38.3278	1.069433818
38.3481	1.056044376
38.3683	1.062739097
38.3885	1.051644989
38.4088	1.053557766
38.429	1.052410099
38.4493	1.049732211
38.4695	1.051262433
38.4898	1.049923489
38.51	1.054705432
38.5303	1.052792655
38.5505	1.041507269
38.5708	1.04303749
38.591	1.04303749
38.6113	1.043228768
38.6315	1.054322877
38.6518	1.054322877
38.672	1.060252487
38.6923	1.045906656
38.7125	1.058339709
38.7328	1.05317521
38.753	1.05489671
38.7733	1.056426932
38.7935	1.054131599
38.8138	1.045715379
38.834	1.047819434
38.8542	1.053366488
38.8745	1.052410099
38.8947	1.039020658
38.915	1.043611324
38.9352	1.031178271
38.9555	1.040359602
38.9757	1.041315991
38.996	1.041507269
39.0162	1.039403213
39.0365	1.035960214
39.0567	1.028882938
39.077	1.035195103
39.0972	1.031752104
39.1175	1.031369549
39.1377	1.039977047
39.158	1.041889824
39.1782	1.037299158
39.1985	1.033282326
39.2187	1.031178271
39.239	1.03882938
39.2592	1.028882938
39.2794	1.029648049
39.2997	1.04227238
39.3199	1.042081102
39.3402	1.039403213
39.3604	1.033473604
39.3807	1.038638103
39.4009	1.043420046
39.4212	1.037299158
39.4414	1.038064269
39.4617	1.04227238
39.4819	1.046863045
39.5022	1.045906656
39.5224	1.052983933
39.5427	1.055470543
39.5629	1.051071155
39.5832	1.074407039
39.6034	1.061973986
39.6237	1.063695486
39.6439	1.071537873
39.6642	1.084544759
39.6844	1.096021423
39.7046	1.106159143
39.7249	1.112662586
39.7451	1.140589135
39.7654	1.136954859
39.7856	1.147283856
39.8059	1.145753634
39.8261	1.149770467
39.8464	1.161055853
39.8666	1.166602907
39.8869	1.157804132
39.9071	1.14020658
39.9274	1.125669472
39.9476	1.127964805
39.9679	1.125669472
39.9881	1.111897475
40.0084	1.096595256
40.0286	1.084162204
40.0489	1.089900536
40.0691	1.071729151
40.0894	1.063695486
40.1096	1.06331293
40.1298	1.058530987
40.1501	1.057192043
40.1703	1.063121653
40.1906	1.058722265
40.2108	1.064078041
40.2311	1.073833206
40.2513	1.070198929
40.2716	1.084544759
40.2918	1.091813313
40.3121	1.081293037
40.3323	1.091622035
40.3526	1.090474369
40.3728	1.08530987
40.3931	1.084353481
40.4133	1.091622035
40.4336	1.09123948
40.4538	1.085883703
40.4741	1.08779648
40.4943	1.076702372
40.5146	1.063886764
40.5348	1.071346595
40.5551	1.061400153
40.5753	1.060061209
40.5955	1.057192043
40.6158	1.060061209
40.636	1.051836266
40.6563	1.043611324
40.6765	1.045906656
40.6968	1.046097934
40.717	1.044950268
40.7373	1.045141546
40.7575	1.046863045
40.7778	1.052027544
40.798	1.04227238
40.8183	1.041698546
40.8385	1.050497322
40.8588	1.046863045
40.879	1.048393267
40.8993	1.056809487
40.9195	1.043611324
40.9398	1.052601377
40.96	1.052027544
40.9803	1.047436878
41.0005	1.053557766
41.0207	1.061973986
41.041	1.0506886
41.0612	1.052792655
41.0815	1.052983933
41.1017	1.057000765
41.122	1.05489671
41.1422	1.044376435
41.1625	1.039594491
41.1827	1.046289212
41.203	1.043420046
41.2232	1.045332823
41.2435	1.047819434
41.2637	1.038255547
41.284	1.048775822
41.3042	1.044567712
41.3245	1.043993879
41.3447	1.055279265
41.365	1.049349656
41.3852	1.04227238
41.4055	1.04475899
41.4257	1.043802601
41.4459	1.0506886
41.4662	1.049349656
41.4864	1.061208875
41.5067	1.043993879
41.5269	1.062165264
41.5472	1.05317521
41.5674	1.059487376
41.5877	1.054705432
41.6079	1.052218822
41.6282	1.050114767
41.6484	1.059296098
41.6687	1.054514155
41.6889	1.055661821
41.7092	1.061208875
41.7294	1.058530987
41.7497	1.051453711
41.7699	1.052410099
41.7902	1.051453711
41.8104	1.055087988
41.8307	1.052983933
41.8509	1.060635042
41.8711	1.052983933
41.8914	1.057000765
41.9116	1.055661821
41.9319	1.063121653
41.9521	1.058339709
41.9724	1.05661821
41.9926	1.05910482
42.0129	1.055087988
42.0331	1.058148432
42.0534	1.049349656
42.0736	1.055279265
42.0939	1.050879878
42.1141	1.061017598
42.1344	1.052601377
42.1546	1.051262433
42.1749	1.05489671
42.1951	1.054514155
42.2154	1.059296098
42.2356	1.047628156
42.2559	1.057000765
42.2761	1.057000765
42.2963	1.054705432
42.3166	1.053366488
42.3368	1.055470543
42.3571	1.045141546
42.3773	1.048201989
42.3976	1.049349656
42.4178	1.053940321
42.4381	1.051453711
42.4583	1.050114767
42.4786	1.051453711
42.4988	1.040742158
42.5191	1.04303749
42.5393	1.039211936
42.5596	1.050114767
42.5798	1.04055088
42.6001	1.045141546
42.6203	1.049158378
42.6406	1.045715379
42.6608	1.043420046
42.6811	1.042654935
42.7013	1.045524101
42.7216	1.049540933
42.7418	1.052218822
42.762	1.039020658
42.7823	1.049540933
42.8025	1.032708493
42.8228	1.037490436
42.843	1.035768937
42.8633	1.033856159
42.8835	1.041889824
42.9038	1.042081102
42.924	1.039403213
42.9443	1.04227238
42.9645	1.04648049
42.9848	1.042463657
43.005	1.039020658
43.0253	1.047054323
43.0455	1.04475899
43.0658	1.054514155
43.086	1.057000765
43.1063	1.047436878
43.1265	1.041315991
43.1468	1.047628156
43.167	1.047628156
43.1872	1.052410099
43.2075	1.050114767
43.2277	1.054131599
43.248	1.043802601
43.2682	1.043420046
43.2885	1.04648049
43.3087	1.0506886
43.329	1.051071155
43.3492	1.054705432
43.3695	1.06331293
43.3897	1.057957154
43.41	1.045906656
43.4302	1.062547819
43.4505	1.052792655
43.4707	1.054514155
43.491	1.043420046
43.5112	1.046671767
43.5315	1.048010712
43.5517	1.046097934
43.572	1.043420046
43.5922	1.04303749
43.6124	1.042081102
43.6327	1.043802601
43.6529	1.039020658
43.6732	1.041698546
43.6934	1.036916603
43.7137	1.037490436
43.7339	1.03289977
43.7542	1.036725325
43.7744	1.033856159
43.7947	1.032517215
43.8149	1.035960214
43.8352	1.027543994
43.8554	1.039594491
43.8757	1.035768937
43.8959	1.041889824
43.9162	1.033091048
43.9364	1.042081102
43.9567	1.042846213
43.9769	1.037681714
43.9972	1.034238715
44.0174	1.033664881
44.0376	1.034429992
44.0579	1.040359602
44.0781	1.035195103
44.0984	1.031178271
44.1186	1.04303749
44.1389	1.048201989
44.1591	1.050306044
44.1794	1.058530987
44.1996	1.060443764
44.2199	1.053366488
44.2401	1.049540933
44.2604	1.06331293
44.2806	1.059678653
44.3009	1.05489671
44.3211	1.056044376
44.3414	1.047245601
44.3616	1.059678653
44.3819	1.055087988
44.4021	1.064651875
44.4224	1.047054323
44.4426	1.052601377
44.4629	1.060443764
44.4831	1.062356542
44.5033	1.053366488
44.5236	1.055853099
44.5438	1.048584545
44.5641	1.051071155
44.5843	1.048010712
44.6046	1.043993879
44.6248	1.047628156
44.6451	1.061591431
44.6653	1.060443764
44.6856	1.062930375
44.7058	1.071729151
44.7261	1.059296098
44.7463	1.062165264
44.7666	1.055853099
44.7868	1.057383321
44.8071	1.062739097
44.8273	1.071537873
44.8476	1.061591431
44.8678	1.063121653
44.8881	1.068094874
44.9083	1.073259373
44.9285	1.061591431
44.9488	1.052983933
44.969	1.061208875
44.9893	1.057765876
45.0095	1.057957154
45.0298	1.059487376
45.05	1.06082632
45.0703	1.054322877
45.0905	1.07096404
45.1108	1.075554705
45.131	1.077658761
45.1513	1.076128539
45.1715	1.067712318
45.1918	1.089709258
45.212	1.074598317
45.2323	1.089900536
45.2525	1.076128539
45.2728	1.086648814
45.293	1.083397093
45.3133	1.0996557
45.3335	1.077276205
45.3537	1.080910482
45.374	1.073833206
45.3942	1.071346595
45.4145	1.074215761
45.4347	1.074215761
45.455	1.083014537
45.4752	1.077850038
45.4955	1.084927314
45.5157	1.082440704
45.536	1.096403979
45.5562	1.102524866
45.5765	1.100612089
45.5967	1.116296863
45.617	1.109410865
45.6372	1.11993114
45.6575	1.120504973
45.6777	1.126625861
45.698	1.123182862
45.7182	1.138867636
45.7385	1.130451416
45.7587	1.133129304
45.7789	1.132746748
45.7992	1.123756695
45.8194	1.124330528
45.8397	1.12165264
45.8599	1.101568477
45.8802	1.104820199
45.9004	1.111132364
45.9207	1.099081867
45.9409	1.086074981
45.9612	1.085118592
45.9814	1.077658761
46.0017	1.072876817
46.0219	1.080336649
46.0422	1.072876817
46.0624	1.063886764
46.0827	1.072302984
46.1029	1.066564652
46.1232	1.062356542
46.1434	1.070390207
46.1637	1.063695486
46.1839	1.060061209
46.2041	1.068668707
46.2244	1.074789594
46.2446	1.069051262
46.2649	1.070007651
46.2851	1.082823259
46.3054	1.078615149
46.3256	1.075363428
46.3459	1.084927314
46.3661	1.071537873
46.3864	1.085883703
46.4066	1.096212701
46.4269	1.088561591
46.4471	1.092578424
46.4674	1.102716144
46.4876	1.110749809
46.5079	1.127773527
46.5281	1.14441469
46.5484	1.155508799
46.5686	1.182670237
46.5889	1.213848508
46.6091	1.249043611
46.6294	1.257077276
46.6496	1.286534047
46.6698	1.311017598
46.6901	1.308913543
46.7103	1.351185922
46.7306	1.355776588
46.7508	1.378921194
46.7711	1.344873757
46.7913	1.330910482
46.8116	1.323259373
46.8318	1.297436878
46.8521	1.272379495
46.8723	1.247130834
46.8926	1.205432288
46.9128	1.18496557
46.9331	1.16641163
46.9533	1.14020658
46.9736	1.114575363
46.9938	1.103098699
47.0141	1.08779648
47.0343	1.086648814
47.0546	1.079762816
47.0748	1.07689365
47.095	1.063121653
47.1153	1.055279265
47.1355	1.052983933
47.1558	1.053366488
47.176	1.046671767
47.1963	1.049158378
47.2165	1.044185157
47.2368	1.046671767
47.257	1.052410099
47.2773	1.048010712
47.2975	1.055279265
47.3178	1.055087988
47.338	1.044185157
47.3583	1.056426932
47.3785	1.046289212
47.3988	1.047436878
47.419	1.048010712
47.4393	1.052027544
47.4595	1.057192043
47.4798	1.04648049
47.5	1.054705432
47.5202	1.048584545
47.5405	1.0506886
47.5607	1.051644989
47.581	1.045715379
47.6012	1.057192043
47.6215	1.054322877
47.6417	1.052218822
47.662	1.059296098
47.6822	1.052218822
47.7025	1.050306044
47.7227	1.050879878
47.743	1.053557766
47.7632	1.051453711
47.7835	1.042463657
47.8037	1.041315991
47.824	1.053366488
47.8442	1.051644989
47.8645	1.04475899
47.8847	1.044185157
47.905	1.043993879
47.9252	1.039785769
47.9454	1.040168324
47.9657	1.044185157
47.9859	1.039785769
48.0062	1.037681714
48.0264	1.042081102
48.0467	1.039785769
48.0669	1.0489671
48.0872	1.039977047
48.1074	1.051644989
48.1277	1.0489671
48.1479	1.05661821
48.1682	1.042081102
48.1884	1.050879878
48.2087	1.05317521
48.2289	1.057192043
48.2492	1.068286151
48.2694	1.051262433
48.2897	1.0506886
48.3099	1.0489671
48.3302	1.052792655
48.3504	1.054514155
48.3707	1.049158378
48.3909	1.043228768
48.4111	1.043228768
48.4314	1.037299158
48.4516	1.033282326
48.4719	1.035003826
48.4921	1.027352716
48.5124	1.028309105
48.5326	1.029456771
48.5529	1.029074216
48.5731	1.033664881
48.5934	1.02869166
48.6136	1.034812548
48.6339	1.026396327
48.6541	1.032708493
48.6744	1.029456771
48.6946	1.039785769
48.7149	1.029074216
48.7351	1.023909717
48.7554	1.028882938
48.7756	1.031752104
48.7959	1.034812548
48.8161	1.027926549
48.8363	1.025822494
48.8566	1.028500383
48.8768	1.025631217
48.8971	1.027543994
48.9173	1.026013772
48.9376	1.026587605
48.9578	1.042654935
48.9781	1.037872992
48.9983	1.035768937
49.0186	1.026396327
49.0388	1.031178271
49.0591	1.038255547
49.0793	1.038255547
49.0996	1.031369549
49.1198	1.034047437
49.1401	1.04055088
49.1603	1.035386381
49.1806	1.032325937
49.2008	1.047819434
49.2211	1.034812548
49.2413	1.038255547
49.2615	1.035195103
49.2818	1.035577659
49.302	1.03213466
49.3223	1.042654935
49.3425	1.041315991
49.3628	1.040359602
49.383	1.039403213
49.4033	1.029648049
49.4235	1.041124713
49.4438	1.04055088
49.464	1.027352716
49.4843	1.037107881
49.5045	1.031178271
49.5248	1.033473604
49.545	1.026970161
49.5653	1.029456771
49.5855	1.025439939
49.6058	1.026778883
49.626	1.026587605
49.6463	1.026587605
49.6665	1.027161438
49.6867	1.028309105
49.707	1.026778883
49.7272	1.033473604
49.7475	1.035768937
49.7677	1.027543994
49.788	1.021040551
49.8082	1.024866106
49.8285	1.027543994
49.8487	1.033282326
49.869	1.026778883
49.8892	1.030604438
49.9095	1.030986993
49.9297	1.03289977
49.95	1.021231829
49.9702	1.028309105
49.9905	1.027161438
50.0107	1.019510329
50.031	1.033282326
50.0512	1.028117827
50.0715	1.028117827
50.0917	1.031752104
50.1119	1.031178271
50.1322	1.031369549
50.1524	1.032325937
50.1727	1.032708493
50.1929	1.026970161
50.2132	1.030604438
50.2334	1.032325937
50.2537	1.03213466
50.2739	1.034238715
50.2942	1.025822494
50.3144	1.032517215
50.3347	1.03213466
50.3549	1.031560826
50.3752	1.032708493
50.3954	1.043228768
50.4157	1.038255547
50.4359	1.036534047
50.4562	1.044185157
50.4764	1.033091048
50.4967	1.04475899
50.5169	1.052218822
50.5372	1.054705432
50.5574	1.057000765
50.5776	1.065990819
50.5979	1.071537873
50.6181	1.070198929
50.6384	1.074215761
50.6586	1.092960979
50.6789	1.098890589
50.6991	1.11400153
50.7194	1.101568477
50.7396	1.108263198
50.7599	1.105967865
50.7801	1.109602142
50.8004	1.116870696
50.8206	1.1013772
50.8409	1.111706197
50.8611	1.103098699
50.8814	1.098508034
50.9016	1.0996557
50.9219	1.085118592
50.9421	1.083397093
50.9624	1.077084927
50.9826	1.075745983
51.0028	1.063121653
51.0231	1.058913542
51.0433	1.058913542
51.0636	1.063886764
51.0838	1.050497322
51.1041	1.049158378
51.1243	1.044185157
51.1446	1.043420046
51.1648	1.04303749
51.1851	1.043802601
51.2053	1.045906656
51.2256	1.040742158
51.2458	1.041315991
51.2661	1.037107881
51.2863	1.041507269
51.3066	1.041315991
51.3268	1.052601377
51.3471	1.046671767
51.3673	1.048010712
51.3876	1.051071155
51.4078	1.048775822
51.428	1.068286151
51.4483	1.051644989
51.4685	1.049540933
51.4888	1.052218822
51.509	1.051071155
51.5293	1.060252487
51.5495	1.062547819
51.5698	1.04648049
51.59	1.049540933
51.6103	1.059678653
51.6305	1.057765876
51.6508	1.048010712
51.671	1.051453711
51.6913	1.053557766
51.7115	1.042463657
51.7318	1.045524101
51.752	1.04055088
51.7723	1.048393267
51.7925	1.044567712
51.8128	1.054322877
51.833	1.03462127
51.8532	1.048010712
51.8735	1.049923489
51.8937	1.039403213
51.914	1.043228768
51.9342	1.052983933
51.9545	1.056235654
51.9747	1.050497322
51.995	1.054514155
52.0152	1.057574598
52.0355	1.063504208
52.0557	1.065225708
52.076	1.059296098
52.0962	1.06924254
52.1165	1.055470543
52.1367	1.059678653
52.157	1.061208875
52.1772	1.05910482
52.1975	1.057192043
52.2177	1.05317521
52.238	1.059678653
52.2582	1.059296098
52.2785	1.055661821
52.2987	1.0506886
52.3189	1.0506886
52.3392	1.052792655
52.3594	1.063504208
52.3797	1.067521041
52.3999	1.057574598
52.4202	1.06675593
52.4404	1.064460597
52.4607	1.064460597
52.4809	1.059678653
52.5012	1.060252487
52.5214	1.061017598
52.5417	1.072685539
52.5619	1.067903596
52.5822	1.066564652
52.6024	1.075745983
52.6227	1.067712318
52.6429	1.062930375
52.6632	1.064651875
52.6834	1.068286151
52.7037	1.068859985
52.7239	1.061591431
52.7441	1.055087988
52.7644	1.052601377
52.7846	1.052410099
52.8049	1.05317521
52.8251	1.054322877
52.8454	1.043420046
52.8656	1.055087988
52.8859	1.042081102
52.9061	1.03462127
52.9264	1.033856159
52.9466	1.047054323
52.9669	1.049923489
52.9871	1.037107881
53.0074	1.048584545
53.0276	1.046671767
53.0479	1.038255547
53.0681	1.040168324
53.0884	1.035003826
53.1086	1.039785769
53.1289	1.035960214
53.1491	1.041507269
53.1693	1.033282326
53.1896	1.042081102
53.2098	1.03634277
53.2301	1.034047437
53.2503	1.038064269
53.2706	1.035386381
53.2908	1.03041316
53.3111	1.037299158
53.3313	1.034238715
53.3516	1.038446825
53.3718	1.039785769
53.3921	1.034429992
53.4123	1.039594491
53.4326	1.037490436
53.4528	1.036725325
53.4731	1.028117827
53.4933	1.038255547
53.5136	1.040933435
53.5338	1.033664881
53.5541	1.042846213
53.5743	1.038638103
53.5945	1.03289977
53.6148	1.04227238
53.635	1.040933435
53.6553	1.037681714
53.6755	1.043228768
53.6958	1.050306044
53.716	1.056235654
53.7363	1.057383321
53.7565	1.060443764
53.7768	1.061208875
53.797	1.069433818
53.8173	1.060443764
53.8375	1.070772762
53.8578	1.083205815
53.878	1.080145371
53.8983	1.079571538
53.9185	1.085118592
53.9388	1.08779648
53.959	1.089709258
53.9793	1.097551645
53.9995	1.082440704
54.0197	1.088179036
54.04	1.085118592
54.0602	1.090856924
54.0805	1.09123948
54.1007	1.083397093
54.121	1.088370314
54.1412	1.080527927
54.1615	1.08703137
54.1817	1.070772762
54.202	1.076128539
54.2222	1.066564652
54.2425	1.06503443
54.2627	1.06331293
54.283	1.049158378
54.3032	1.057192043
54.3235	1.054131599
54.3437	1.04303749
54.364	1.04648049
54.3842	1.047436878
54.4045	1.040933435
54.4247	1.050306044
54.445	1.045524101
54.4652	1.033856159
54.4854	1.043228768
54.5057	1.037299158
54.5259	1.039977047
54.5462	1.03882938
54.5664	1.045715379
54.5867	1.04055088
54.6069	1.039594491
54.6272	1.045906656
54.6474	1.041124713
54.6677	1.048010712
54.6879	1.043611324
54.7082	1.049158378
54.7284	1.049923489
54.7487	1.049349656
54.7689	1.057574598
54.7892	1.052410099
54.8094	1.053366488
54.8297	1.057000765
54.8499	1.062930375
54.8702	1.071920428
54.8904	1.066373374
54.9106	1.076511094
54.9309	1.074980872
54.9511	1.075554705
54.9714	1.080910482
54.9916	1.069433818
55.0119	1.078615149
55.0321	1.071920428
55.0524	1.083205815
55.0726	1.084353481
55.0929	1.077467483
55.1131	1.081675593
55.1334	1.090474369
55.1536	1.08951798
55.1739	1.08358837
55.1941	1.080145371
55.2144	1.074980872
55.2346	1.08110176
55.2549	1.072302984
55.2751	1.081484315
55.2954	1.052601377
55.3156	1.056235654
55.3358	1.067521041
55.3561	1.064651875
55.3763	1.051644989
55.3966	1.057765876
55.4168	1.052027544
55.4371	1.043802601
55.4573	1.047245601
55.4776	1.045906656
55.4978	1.048201989
55.5181	1.047436878
55.5383	1.043993879
55.5586	1.035768937
55.5788	1.03462127
55.5991	1.041698546
55.6193	1.033856159
55.6396	1.024100995
55.6598	1.033473604
55.6801	1.037299158
55.7003	1.036534047
55.7206	1.031943382
55.7408	1.034047437
55.761	1.034238715
55.7813	1.033091048
55.8015	1.025631217
55.8218	1.029074216
55.842	1.03213466
55.8623	1.037107881
55.8825	1.026778883
55.9028	1.034047437
55.923	1.022570773
55.9433	1.029265494
55.9635	1.029456771
55.9838	1.032708493
56.004	1.036916603
56.0243	1.037681714
56.0445	1.031178271
56.0648	1.025631217
56.085	1.029456771
56.1053	1.029456771
56.1255	1.033282326
56.1458	1.023335884
56.166	1.035003826
56.1863	1.020466718
56.2065	1.029648049
56.2267	1.03289977
56.247	1.027735272
56.2672	1.026970161
56.2875	1.033473604
56.3077	1.033473604
56.328	1.037299158
56.3482	1.03289977
56.3685	1.044567712
56.3887	1.039785769
56.409	1.042463657
56.4292	1.03882938
56.4495	1.042846213
56.4697	1.036151492
56.49	1.038638103
56.5102	1.042463657
56.5305	1.044376435
56.5507	1.041507269
56.571	1.033856159
56.5912	1.046863045
56.6115	1.035195103
56.6317	1.040933435
56.6519	1.039785769
56.6722	1.043420046
56.6924	1.033664881
56.7127	1.037490436
56.7329	1.036916603
56.7532	1.027926549
56.7734	1.03289977
56.7937	1.039211936
56.8139	1.038446825
56.8342	1.044567712
56.8544	1.043993879
56.8747	1.045141546
56.8949	1.046289212
56.9152	1.043993879
56.9354	1.056235654
56.9557	1.048201989
56.9759	1.045332823
56.9962	1.051453711
57.0164	1.059678653
57.0367	1.064078041
57.0569	1.050879878
57.0771	1.072494262
57.0974	1.074407039
57.1176	1.067138485
57.1379	1.079954093
57.1581	1.096212701
57.1784	1.099846978
57.1986	1.115531752
57.2189	1.119357307
57.2391	1.113045142
57.2594	1.139441469
57.2796	1.129877582
57.2999	1.141736802
57.3201	1.139250191
57.3404	1.155508799
57.3606	1.153213466
57.3809	1.156847743
57.4011	1.14613619
57.4214	1.149387911
57.4416	1.153787299
57.4619	1.144988523
57.4821	1.134085692
57.5023	1.129686305
57.5226	1.135615914
57.5428	1.125095639
57.5631	1.111706197
57.5833	1.108263198
57.6036	1.114766641
57.6238	1.106159143
57.6441	1.111706197
57.6643	1.103289977
57.6846	1.102907422
57.7048	1.114766641
57.7251	1.11744453
57.7453	1.124904361
57.7656	1.122226473
57.7858	1.145944912
57.8061	1.162394797
57.8263	1.170237184
57.8466	1.206006121
57.8668	1.230107116
57.8871	1.248087223
57.9073	1.284238715
57.9275	1.300306044
57.9478	1.322494262
57.968	1.323833206
57.9883	1.335118592
58.0085	1.336074981
58.0288	1.328041316
58.049	1.332823259
58.0693	1.315416986
58.0895	1.311017598
58.1098	1.277352716
58.13	1.267788829
58.1503	1.270849273
58.1705	1.247322112
58.1908	1.20944912
58.211	1.191086458
58.2313	1.165263963
58.2515	1.152830911
58.2718	1.145944912
58.292	1.133894415
58.3123	1.132555471
58.3325	1.113810253
58.3528	1.101568477
58.373	1.102333588
58.3932	1.093343535
58.4135	1.088752869
58.4337	1.07938026
58.454	1.074980872
58.4742	1.071537873
58.4945	1.072685539
58.5147	1.071346595
58.535	1.069625096
58.5552	1.067903596
58.5755	1.064651875
58.5957	1.057957154
58.616	1.060635042
58.6362	1.076319816
58.6565	1.074215761
58.6767	1.067329763
58.697	1.076702372
58.7172	1.070198929
58.7375	1.072685539
58.7577	1.066947207
58.778	1.069433818
58.7982	1.05910482
58.8184	1.062930375
58.8387	1.059487376
58.8589	1.064460597
58.8792	1.057957154
58.8994	1.061782708
58.9197	1.049923489
58.9399	1.05489671
58.9602	1.055087988
58.9804	1.045906656
59.0007	1.049540933
59.0209	1.043228768
59.0412	1.042463657
59.0614	1.040742158
59.0817	1.045332823
59.1019	1.04055088
59.1222	1.052218822
59.1424	1.048393267
59.1627	1.049158378
59.1829	1.0489671
59.2032	1.060635042
59.2234	1.060443764
59.2436	1.061782708
59.2639	1.071155318
59.2841	1.068286151
59.3044	1.077467483
59.3246	1.073833206
59.3449	1.082440704
59.3651	1.082249426
59.3854	1.074024484
59.4056	1.078615149
59.4259	1.081866871
59.4461	1.071729151
59.4664	1.070772762
59.4866	1.075745983
59.5069	1.072302984
59.5271	1.070772762
59.5474	1.072494262
59.5676	1.071537873
59.5879	1.074407039
59.6081	1.058913542
59.6284	1.061400153
59.6486	1.058530987
59.6688	1.05661821
59.6891	1.053940321
59.7093	1.05489671
59.7296	1.048010712
59.7498	1.057574598
59.7701	1.042463657
59.7903	1.044185157
59.8106	1.039403213
59.8308	1.046097934
59.8511	1.040933435
59.8713	1.041889824
59.8916	1.039020658
59.9118	1.039594491
59.9321	1.044950268
59.9523	1.032325937
59.9726	1.036534047
59.9928	1.035195103
60.0131	1.033091048
60.0333	1.036151492
60.0536	1.039785769
60.0738	1.03041316
60.0941	1.036534047
60.1143	1.037299158
60.1345	1.02869166
60.1548	1.031752104
60.175	1.035003826
60.1953	1.036725325
60.2155	1.029648049
60.2358	1.029074216
60.256	1.031943382
60.2763	1.032325937
60.2965	1.035003826
60.3168	1.041124713
60.337	1.026970161
60.3573	1.031369549
60.3775	1.033282326
60.3978	1.048393267
60.418	1.03041316
60.4383	1.030221882
60.4585	1.037872992
60.4788	1.043993879
60.499	1.040359602
60.5193	1.038255547
60.5395	1.040933435
60.5597	1.041889824
60.58	1.039403213
60.6002	1.041698546
60.6205	1.039403213
60.6407	1.037299158
60.661	1.038446825
60.6812	1.03213466
60.7015	1.039403213
60.7217	1.04227238
60.742	1.03289977
60.7622	1.043228768
60.7825	1.030795715
60.8027	1.041124713
60.823	1.034429992
60.8432	1.048584545
60.8635	1.034047437
60.8837	1.035386381
60.904	1.043993879
60.9242	1.043802601
60.9445	1.047436878
60.9647	1.045906656
60.9849	1.051071155
61.0052	1.045524101
61.0254	1.058530987
61.0457	1.056235654
61.0659	1.055279265
61.0862	1.062739097
61.1064	1.052601377
61.1267	1.062547819
61.1469	1.062165264
61.1672	1.062356542
61.1874	1.065990819
61.2077	1.061208875
61.2279	1.063121653
61.2482	1.073641928
61.2684	1.065416985
61.2887	1.061400153
61.3089	1.059487376
61.3292	1.058913542
61.3494	1.053557766
61.3697	1.057383321
61.3899	1.053557766
61.4101	1.056426932
61.4304	1.063695486
61.4506	1.062356542
61.4709	1.068286151
61.4911	1.070581484
61.5114	1.078806427
61.5316	1.083970926
61.5519	1.096212701
61.5721	1.103098699
61.5924	1.100612089
61.6126	1.106924254
61.6329	1.111323642
61.6531	1.114192808
61.6734	1.123182862
61.6936	1.126817139
61.7139	1.131981637
61.7341	1.139058914
61.7544	1.142501913
61.7746	1.136381025
61.7949	1.136763581
61.8151	1.127582249
61.8353	1.140015302
61.8556	1.135042081
61.8758	1.134659526
61.8961	1.148814078
61.9163	1.120122418
61.9366	1.127964805
61.9568	1.118018363
61.9771	1.121461362
61.9973	1.108263198
62.0176	1.114766641
62.0378	1.108263198
62.0581	1.101759755
62.0783	1.109219587
62.0986	1.088179036
62.1188	1.088752869
62.1391	1.087987758
62.1593	1.082631982
62.1796	1.076702372
62.1998	1.074215761
62.2201	1.076319816
62.2403	1.061208875
62.2606	1.058722265
62.2808	1.056235654
62.301	1.063121653
62.3213	1.052410099
62.3415	1.046863045
62.3618	1.046671767
62.382	1.060061209
62.4023	1.041315991
62.4225	1.044567712
62.4428	1.047245601
62.463	1.036725325
62.4833	1.042081102
62.5035	1.040933435
62.5238	1.047054323
62.544	1.032325937
62.5643	1.036534047
62.5845	1.036534047
62.6048	1.041124713
62.625	1.038446825
62.6453	1.038255547
62.6655	1.04055088
62.6858	1.038638103
62.706	1.035960214
62.7262	1.03882938
62.7465	1.029456771
62.7667	1.038064269
62.787	1.035577659
62.8072	1.03213466
62.8275	1.047628156
62.8477	1.038064269
62.868	1.037299158
62.8882	1.044185157
62.9085	1.055279265
62.9287	1.048584545
62.949	1.037681714
62.9692	1.033091048
62.9895	1.046863045
63.0097	1.040168324
63.03	1.041507269
63.0502	1.039020658
63.0705	1.034238715
63.0907	1.035960214
63.111	1.031369549
63.1312	1.031560826
63.1514	1.026013772
63.1717	1.038064269
63.1919	1.029648049
63.2122	1.03462127
63.2324	1.033856159
63.2527	1.034047437
63.2729	1.029456771
63.2932	1.030795715
63.3134	1.025822494
63.3337	1.023718439
63.3539	1.020466718
63.3742	1.03462127
63.3944	1.038638103
63.4147	1.033664881
63.4349	1.030030604
63.4552	1.030795715
63.4754	1.028500383
63.4957	1.030795715
63.5159	1.029839327
63.5362	1.031178271
63.5564	1.035960214
63.5766	1.030030604
63.5969	1.038255547
63.6171	1.026778883
63.6374	1.02620505
63.6576	1.035577659
63.6779	1.031178271
63.6981	1.026013772
63.7184	1.031369549
63.7386	1.03041316
63.7589	1.035577659
63.7791	1.03634277
63.7994	1.035386381
63.8196	1.035195103
63.8399	1.031560826
63.8601	1.035386381
63.8804	1.025631217
63.9006	1.03882938
63.9209	1.037107881
63.9411	1.036725325
63.9614	1.034238715
63.9816	1.031178271
64.0019	1.034047437
64.0221	1.03213466
64.0423	1.036725325
64.0626	1.033856159
64.0828	1.037681714
64.1031	1.037490436
64.1233	1.027161438
64.1436	1.038446825
64.1638	1.043228768
64.1841	1.037299158
64.2043	1.038064269
64.2246	1.033091048
64.2448	1.040933435
64.2651	1.03289977
64.2853	1.047245601
64.3056	1.04475899
64.3258	1.0506886
64.3461	1.051262433
64.3663	1.049158378
64.3866	1.052027544
64.4068	1.056044376
64.4271	1.06082632
64.4473	1.063504208
64.4675	1.071155318
64.4878	1.06924254
64.508	1.070198929
64.5283	1.073641928
64.5485	1.072302984
64.5688	1.067329763
64.589	1.070772762
64.6093	1.05910482
64.6295	1.064078041
64.6498	1.062356542
64.67	1.069625096
64.6903	1.070772762
64.7105	1.054322877
64.7308	1.060252487
64.751	1.057383321
64.7713	1.057192043
64.7915	1.056044376
64.8118	1.048584545
64.832	1.050306044
64.8523	1.045141546
64.8725	1.044376435
64.8927	1.042463657
64.913	1.037107881
64.9332	1.044567712
64.9535	1.035003826
64.9737	1.034812548
64.994	1.036916603
65.0142	1.029265494
65.0345	1.033473604
65.0547	1.029648049
65.075	1.031943382
65.0952	1.045715379
65.1155	1.02448355
65.1357	1.027543994
65.156	1.032517215
65.1762	1.026587605
65.1965	1.030221882
65.2167	1.023909717
65.237	1.029648049
65.2572	1.032517215
65.2775	1.024100995
65.2977	1.024866106
65.3179	1.034238715
65.3382	1.024674828
65.3584	1.027735272
65.3787	1.02620505
65.3989	1.025631217
65.4192	1.029265494
65.4394	1.016449885
65.4597	1.025822494
65.4799	1.025822494
65.5002	1.030795715
65.5204	1.029839327
65.5407	1.031178271
65.5609	1.028309105
65.5812	1.036151492
65.6014	1.033282326
65.6217	1.031369549
65.6419	1.042654935
65.6622	1.037872992
65.6824	1.03882938
65.7027	1.040359602
65.7229	1.043420046
65.7431	1.035386381
65.7634	1.032517215
65.7836	1.038638103
65.8039	1.045332823
65.8241	1.039785769
65.8444	1.040933435
65.8646	1.039211936
65.8849	1.044950268
65.9051	1.033091048
65.9254	1.030604438
65.9456	1.040168324
65.9659	1.034429992
65.9861	1.03289977
66.0064	1.030030604
66.0266	1.030795715
66.0469	1.040742158
66.0671	1.033282326
66.0874	1.031752104
66.1076	1.036725325
66.1279	1.028500383
66.1481	1.026587605
66.1684	1.036725325
66.1886	1.034429992
66.2088	1.036534047
66.2291	1.029265494
66.2493	1.035768937
66.2696	1.043228768
66.2898	1.039211936
66.3101	1.03289977
66.3303	1.037490436
66.3506	1.034047437
66.3708	1.020849273
66.3911	1.03462127
66.4113	1.029456771
66.4316	1.033664881
66.4518	1.035003826
66.4721	1.033856159
66.4923	1.023718439
66.5126	1.026970161
66.5328	1.038064269
66.5531	1.033664881
66.5733	1.028309105
66.5936	1.035195103
66.6138	1.033282326
66.634	1.041507269
66.6543	1.040168324
66.6745	1.048775822
66.6948	1.040933435
66.715	1.042846213
66.7353	1.037299158
66.7555	1.032325937
66.7758	1.041507269
66.796	1.043228768
66.8163	1.047054323
66.8365	1.045332823
66.8568	1.04227238
66.877	1.045524101
66.8973	1.046671767
66.9175	1.043228768
66.9378	1.04475899
66.958	1.04227238
66.9783	1.03882938
66.9985	1.037299158
67.0188	1.048010712
67.039	1.048201989
67.0592	1.043802601
67.0795	1.044185157
67.0997	1.036916603
67.12	1.042846213
67.1402	1.039403213
67.1605	1.044376435
67.1807	1.042846213
67.201	1.045524101
67.2212	1.048201989
67.2415	1.048393267
67.2617	1.053749044
67.282	1.059869931
67.3022	1.062165264
67.3225	1.064843152
67.3427	1.067329763
67.363	1.071920428
67.3832	1.077467483
67.4035	1.096403979
67.4237	1.096977812
67.444	1.09372609
67.4642	1.096786534
67.4844	1.103098699
67.5047	1.121078806
67.5249	1.110367253
67.5452	1.121843917
67.5654	1.12165264
67.5857	1.13006886
67.6059	1.131407804
67.6262	1.124521806
67.6464	1.128729916
67.6667	1.116296863
67.6869	1.133129304
67.7072	1.114384086
67.7274	1.118018363
67.7477	1.113427697
67.7679	1.109984698
67.7882	1.102524866
67.8084	1.103481255
67.8287	1.10807192
67.8489	1.081675593
67.8692	1.079954093
67.8894	1.076128539
67.9097	1.080336649
67.9299	1.072111706
67.9501	1.069816373
67.9704	1.067329763
67.9906	1.065799541
68.0109	1.052601377
68.0311	1.067903596
68.0514	1.057192043
68.0716	1.065608263
68.0919	1.064460597
68.1121	1.052983933
68.1324	1.050497322
68.1526	1.060635042
68.1729	1.067521041
68.1931	1.05910482
68.2134	1.07517215
68.2336	1.067521041
68.2539	1.07517215
68.2741	1.084927314
68.2944	1.084544759
68.3146	1.095065034
68.3349	1.093152257
68.3551	1.096403979
68.3753	1.106732976
68.3956	1.103098699
68.4158	1.106541699
68.4361	1.10558531
68.4563	1.104055088
68.4766	1.100229533
68.4968	1.100038256
68.5171	1.100420811
68.5373	1.092578424
68.5576	1.099081867
68.5778	1.084927314
68.5981	1.083205815
68.6183	1.074407039
68.6386	1.084353481
68.6588	1.06924254
68.6791	1.058913542
68.6993	1.05489671
68.7196	1.057957154
68.7398	1.053749044
68.7601	1.045332823
68.7803	1.0489671
68.8005	1.041889824
68.8208	1.04648049
68.841	1.043420046
68.8613	1.043611324
68.8815	1.043611324
68.9018	1.03634277
68.922	1.04303749
68.9423	1.040359602
68.9625	1.038446825
68.9828	1.03634277
69.003	1.035577659
69.0233	1.039403213
69.0435	1.037299158
69.0638	1.039020658
69.084	1.034429992
69.1043	1.034812548
69.1245	1.041507269
69.1448	1.035386381
69.165	1.034812548
69.1853	1.035003826
69.2055	1.038255547
69.2257	1.034238715
69.246	1.033282326
69.2662	1.042081102
69.2865	1.033282326
69.3067	1.035960214
69.327	1.03289977
69.3472	1.034238715
69.3675	1.034812548
69.3877	1.024100995
69.408	1.023144606
69.4282	1.030795715
69.4485	1.035195103
69.4687	1.028309105
69.489	1.032708493
69.5092	1.033282326
69.5295	1.028882938
69.5497	1.033664881
69.57	1.03289977
69.5902	1.030604438
69.6105	1.027926549
69.6307	1.031752104
69.6509	1.03041316
69.6712	1.034429992
69.6914	1.020466718
69.7117	1.023335884
69.7319	1.039594491
69.7522	1.028500383
69.7724	1.034238715
69.7927	1.026778883
69.8129	1.039594491
69.8332	1.036151492
69.8534	1.029456771
69.8737	1.035386381
69.8939	1.043993879
69.9142	1.035195103
69.9344	1.036151492
69.9547	1.044376435
69.9749	1.033473604
69.9952	1.030604438
70.0154	1.038255547
70.0357	1.024866106
70.0559	1.03289977
70.0762	1.031560826
70.0964	1.03882938
70.1166	1.031560826
70.1369	1.028117827
70.1571	1.035577659
70.1774	1.031369549
70.1976	1.025057383
70.2179	1.029456771
70.2381	1.025631217
70.2584	1.023909717
70.2786	1.028117827
70.2989	1.029839327
70.3191	1.031178271
70.3394	1.033473604
70.3596	1.029839327
70.3799	1.037299158
70.4001	1.029074216
70.4204	1.029265494
70.4406	1.027352716
70.4609	1.025057383
70.4811	1.03041316
70.5014	1.034812548
70.5216	1.031369549
70.5418	1.031560826
70.5621	1.027161438
70.5823	1.023718439
70.6026	1.033282326
70.6228	1.032325937
70.6431	1.030795715
70.6633	1.031943382
70.6836	1.032517215
70.7038	1.026013772
70.7241	1.021423106
70.7443	1.035577659
70.7646	1.028117827
70.7848	1.03213466
70.8051	1.027926549
70.8253	1.027161438
70.8456	1.030604438
70.8658	1.029456771
70.8861	1.026970161
70.9063	1.025822494
70.9266	1.03213466
70.9468	1.033473604
70.967	1.029456771
70.9873	1.032517215
71.0075	1.030221882
71.0278	1.036725325
71.048	1.027161438
71.0683	1.02199694
71.0885	1.03041316
71.1088	1.03213466
71.129	1.03041316
71.1493	1.031560826
71.1695	1.033091048
71.1898	1.031560826
71.21	1.02620505
71.2303	1.035960214
71.2505	1.030795715
71.2708	1.027735272
71.291	1.04055088
71.3113	1.035577659
71.3315	1.022570773
71.3518	1.02620505
71.372	1.038446825
71.3922	1.033856159
71.4125	1.030604438
71.4327	1.03882938
71.453	1.035003826
71.4732	1.034812548
71.4935	1.035003826
71.5137	1.036916603
71.534	1.031560826
71.5542	1.035960214
71.5745	1.03041316
71.5947	1.03882938
71.615	1.029648049
71.6352	1.041315991
71.6555	1.033282326
71.6757	1.03634277
71.696	1.041124713
71.7162	1.047245601
71.7365	1.044185157
71.7567	1.047436878
71.777	1.046289212
71.7972	1.057192043
71.8175	1.056235654
71.8377	1.043993879
71.8579	1.041889824
71.8782	1.038446825
71.8984	1.033856159
71.9187	1.047436878
71.9389	1.050497322
71.9592	1.040168324
71.9794	1.044950268
71.9997	1.038638103
72.0199	1.04303749
72.0402	1.036534047
72.0604	1.042463657
72.0807	1.04648049
72.1009	1.03882938
72.1212	1.036151492
72.1414	1.03882938
72.1617	1.042081102
72.1819	1.03882938
72.2022	1.036151492
72.2224	1.035386381
72.2427	1.043611324
72.2629	1.039977047
72.2831	1.034047437
72.3034	1.037872992
72.3236	1.041698546
72.3439	1.037299158
72.3641	1.036916603
72.3844	1.030986993
72.4046	1.032517215
72.4249	1.039020658
72.4451	1.036916603
72.4654	1.034238715
72.4856	1.043228768
72.5059	1.043420046
72.5261	1.035768937
72.5464	1.041315991
72.5666	1.043228768
72.5869	1.033091048
72.6071	1.03634277
72.6274	1.033856159
72.6476	1.041698546
72.6679	1.04303749
72.6881	1.040742158
72.7083	1.041507269
72.7286	1.039211936
72.7488	1.041698546
72.7691	1.036534047
72.7893	1.047054323
72.8096	1.040933435
72.8298	1.039977047
72.8501	1.044185157
72.8703	1.040933435
72.8906	1.046289212
72.9108	1.04055088
72.9311	1.038255547
72.9513	1.047054323
72.9716	1.045715379
72.9918	1.049349656
73.0121	1.039785769
73.0323	1.053940321
73.0526	1.042654935
73.0728	1.034238715
73.0931	1.037490436
73.1133	1.044950268
73.1335	1.042846213
73.1538	1.03289977
73.174	1.045332823
73.1943	1.043611324
73.2145	1.03882938
73.2348	1.049540933
73.255	1.046671767
73.2753	1.050497322
73.2955	1.052601377
73.3158	1.050114767
73.336	1.047819434
73.3563	1.047819434
73.3765	1.043420046
73.3968	1.046863045
73.417	1.0506886
73.4373	1.041507269
73.4575	1.057000765
73.4778	1.0506886
73.498	1.047436878
73.5183	1.049923489
73.5385	1.047436878
73.5587	1.04648049
73.579	1.037299158
73.5992	1.045332823
73.6195	1.048775822
73.6397	1.048201989
73.66	1.042081102
73.6802	1.043228768
73.7005	1.04055088
73.7207	1.044950268
73.741	1.042846213
73.7612	1.039211936
73.7815	1.036151492
73.8017	1.04475899
73.822	1.044567712
73.8422	1.035003826
73.8625	1.040742158
73.8827	1.035768937
73.903	1.044950268
73.9232	1.036725325
73.9435	1.042081102
73.9637	1.039211936
73.984	1.042081102
74.0042	1.032325937
74.0244	1.042654935
74.0447	1.035960214
74.0649	1.043802601
74.0852	1.045524101
74.1054	1.043420046
74.1257	1.055853099
74.1459	1.047436878
74.1662	1.0489671
74.1864	1.051836266
74.2067	1.060443764
74.2269	1.062165264
74.2472	1.059487376
74.2674	1.067329763
74.2877	1.065799541
74.3079	1.05661821
74.3282	1.065416985
74.3484	1.065225708
74.3687	1.058530987
74.3889	1.057192043
74.4092	1.056044376
74.4294	1.052601377
74.4496	1.049923489
74.4699	1.051644989
74.4901	1.052027544
74.5104	1.051836266
74.5306	1.053557766
74.5509	1.047054323
74.5711	1.05317521
74.5914	1.044376435
74.6116	1.046289212
74.6319	1.054705432
74.6521	1.045524101
74.6724	1.045141546
74.6926	1.041507269
74.7129	1.043420046
74.7331	1.045141546
74.7534	1.037490436
74.7736	1.04055088
74.7939	1.041315991
74.8141	1.042463657
74.8344	1.03634277
74.8546	1.040933435
74.8748	1.041889824
74.8951	1.033473604
74.9153	1.046289212
74.9356	1.04055088
74.9558	1.04227238
74.9761	1.042463657
74.9963	1.037299158
75.0166	1.04055088
75.0368	1.04227238
75.0571	1.040359602
75.0773	1.043228768
75.0976	1.031752104
75.1178	1.046289212
75.1381	1.041507269
75.1583	1.040742158
75.1786	1.040933435
75.1988	1.044950268
75.2191	1.03882938
75.2393	1.047245601
75.2596	1.024292272
75.2798	1.040168324
75.3	1.048010712
75.3203	1.036534047
75.3405	1.050879878
75.3608	1.044376435
75.381	1.047054323
75.4013	1.035960214
75.4215	1.040742158
75.4418	1.039977047
75.462	1.035386381
75.4823	1.038255547
75.5025	1.042463657
75.5228	1.028117827
75.543	1.03462127
75.5633	1.038638103
75.5835	1.035577659
75.6038	1.038064269
75.624	1.026587605
75.6443	1.038638103
75.6645	1.033091048
75.6848	1.031752104
75.705	1.035195103
75.7253	1.02869166
75.7455	1.037107881
75.7657	1.033473604
75.786	1.041507269
75.8062	1.04303749
75.8265	1.037681714
75.8467	1.034047437
75.867	1.034238715
75.8872	1.034047437
75.9075	1.03462127
75.9277	1.032708493
75.948	1.033856159
75.9682	1.037681714
75.9885	1.035577659
76.0087	1.03289977
76.029	1.039977047
76.0492	1.034238715
76.0695	1.030604438
76.0897	1.039020658
76.11	1.039977047
76.1302	1.030221882
76.1505	1.04055088
76.1707	1.031752104
76.1909	1.038255547
76.2112	1.039785769
76.2314	1.040933435
76.2517	1.035577659
76.2719	1.044185157
76.2922	1.043611324
76.3124	1.033091048
76.3327	1.04227238
76.3529	1.034812548
76.3732	1.040168324
76.3934	1.034429992
76.4137	1.039977047
76.4339	1.037299158
76.4542	1.033664881
76.4744	1.03882938
76.4947	1.037107881
76.5149	1.030221882
76.5352	1.032325937
76.5554	1.027735272
76.5757	1.036916603
76.5959	1.033473604
76.6161	1.039211936
76.6364	1.031560826
76.6566	1.030986993
76.6769	1.033664881
76.6971	1.021231829
76.7174	1.035577659
76.7376	1.031752104
76.7579	1.02620505
76.7781	1.03289977
76.7984	1.037107881
76.8186	1.032517215
76.8389	1.035960214
76.8591	1.032517215
76.8794	1.033473604
76.8996	1.031943382
76.9199	1.030030604
76.9401	1.040742158
76.9604	1.027735272
76.9806	1.033282326
77.0009	1.030221882
77.0211	1.033856159
77.0413	1.02869166
77.0616	1.03634277
77.0818	1.038255547
77.1021	1.034429992
77.1223	1.030030604
77.1426	1.035577659
77.1628	1.036916603
77.1831	1.042654935
77.2033	1.02869166
77.2236	1.036151492
77.2438	1.041698546
77.2641	1.039211936
77.2843	1.042081102
77.3046	1.031178271
77.3248	1.039977047
77.3451	1.04227238
77.3653	1.041889824
77.3856	1.043611324
77.4058	1.036151492
77.4261	1.030221882
77.4463	1.049158378
77.4665	1.036725325
77.4868	1.046863045
77.507	1.043611324
77.5273	1.043420046
77.5475	1.0506886
77.5678	1.047436878
77.588	1.050497322
77.6083	1.054514155
77.6285	1.05910482
77.6488	1.070390207
77.669	1.07689365
77.6893	1.099273145
77.7095	1.083779648
77.7298	1.087987758
77.75	1.094873757
77.7703	1.110558531
77.7905	1.117061974
77.8108	1.103098699
77.831	1.104820199
77.8513	1.112471308
77.8715	1.114575363
77.8918	1.127773527
77.912	1.122226473
77.9322	1.123947973
77.9525	1.123182862
77.9727	1.134468248
77.993	1.122417751
78.0132	1.122800306
78.0335	1.111897475
78.0537	1.109219587
78.074	1.106732976
78.0942	1.102907422
78.1145	1.090091813
78.1347	1.091622035
78.155	1.083397093
78.1752	1.083970926
78.1955	1.078232594
78.2157	1.071920428
78.236	1.078806427
78.2562	1.06503443
78.2765	1.06675593
78.2967	1.07096404
78.317	1.066182096
78.3372	1.051071155
78.3574	1.047628156
78.3777	1.052601377
78.3979	1.050879878
78.4182	1.044567712
78.4384	1.047628156
78.4587	1.033856159
78.4789	1.049349656
78.4992	1.036916603
78.5194	1.046097934
78.5397	1.033473604
78.5599	1.035577659
78.5802	1.043420046
78.6004	1.047819434
78.6207	1.036916603
78.6409	1.045332823
78.6612	1.035577659
78.6814	1.044376435
78.7017	1.036534047
78.7219	1.033856159
78.7422	1.034238715
78.7624	1.031752104
78.7826	1.0489671
78.8029	1.04055088
78.8231	1.036916603
78.8434	1.042654935
78.8636	1.049923489
78.8839	1.044376435
78.9041	1.051644989
78.9244	1.059296098
78.9446	1.050497322
78.9649	1.051262433
78.9851	1.055279265
79.0054	1.048584545
79.0256	1.051644989
79.0459	1.048775822
79.0661	1.050497322
79.0864	1.061400153
79.1066	1.049732211
79.1269	1.047054323
79.1471	1.047819434
79.1674	1.041124713
79.1876	1.05317521
79.2078	1.05317521
79.2281	1.0506886
79.2483	1.052601377
79.2686	1.046863045
79.2888	1.053557766
79.3091	1.045715379
79.3293	1.044376435
79.3496	1.04227238
79.3698	1.050114767
79.3901	1.033091048
79.4103	1.043420046
79.4306	1.038638103
79.4508	1.037490436
79.4711	1.04227238
79.4913	1.033282326
79.5116	1.031369549
79.5318	1.039594491
79.5521	1.038064269
79.5723	1.035195103
79.5926	1.030604438
79.6128	1.03289977
79.6331	1.034047437
79.6533	1.027543994
79.6735	1.030604438
79.6938	1.02448355
79.714	1.024292272
79.7343	1.029074216
79.7545	1.02448355
79.7748	1.030221882
79.795	1.039211936
79.8153	1.030221882
79.8355	1.034812548
79.8558	1.020657995
79.876	1.028882938
79.8963	1.034429992
79.9165	1.033856159
79.9368	1.02620505
79.957	1.028500383
79.9773	1.034047437
79.9975	1.031560826
