10.0013	9.350533447
10.0216	9.127418766
10.0418	9.208551377
10.0621	9.411382905
10.0823	9.366759969
10.1026	9.403269644
10.1228	9.22883453
10.1431	9.508742039
10.1633	9.711573567
10.1835	9.030059632
10.2038	9.273457466
10.224	9.524968561
10.2443	9.277514097
10.2645	9.541195083
10.2848	10.01176423
10.305	9.204494747
10.3253	9.492515517
10.3455	9.561478236
10.3658	9.910348465
10.386	9.662894
10.4063	9.703460306
10.4265	9.346476816
10.4468	9.382986491
10.467	9.675063892
10.4873	9.739969981
10.5075	9.484402255
10.5278	10.04421727
10.548	10.01176423
10.5683	10.14968967
10.5885	9.784592917
10.6087	9.524968561
10.629	10.13751978
10.6492	9.739969981
10.6695	10.01582086
10.6897	9.959028031
10.71	9.849499006
10.7302	9.869782159
10.7505	9.918461726
10.7707	9.305910511
10.791	10.0482739
10.8112	9.73185672
10.8315	10.09695347
10.8517	10.13751978
10.872	10.22270902
10.8922	10.31601152
10.9125	10.26327532
10.9327	9.764309764
10.953	9.890065312
10.9732	10.21459576
10.9935	9.930631617
11.0137	10.43365381
11.0339	10.19025597
11.0542	9.954971401
11.0744	10.17402945
11.0947	10.13751978
11.1149	9.975254554
11.1352	10.23082228
11.1554	10.33223804
11.1757	10.19025597
11.1959	10.51072979
11.2162	10.3930875
11.2364	10.41337065
11.2567	10.2470488
11.2769	10.02393412
11.2972	10.73384447
11.3174	10.28761511
11.3377	10.25110543
11.3579	10.26733195
11.3782	10.07261369
11.3984	10.3525212
11.4187	10.23893554
11.4389	10.66488175
11.4592	10.12940651
11.4794	10.18214271
11.4996	10.36874772
11.5199	10.45393696
11.5401	10.32818141
11.5604	10.50667316
11.5806	10.91639284
11.6009	10.97318567
11.6211	10.4985599
11.6414	10.70139142
11.6616	10.92044947
11.6819	10.68110827
11.7021	10.8312036
11.7224	10.25921869
11.7426	10.23487891
11.7629	10.57969251
11.7831	10.7906373
11.8034	10.52695631
11.8236	10.84743012
11.8439	10.52289968
11.8641	10.67299501
11.8844	10.74601436
11.9046	10.42959718
11.9248	10.37280435
11.9451	10.57563588
11.9653	10.6445986
11.9856	10.6324287
12.0058	10.42148392
12.0261	10.69733479
12.0463	10.54318283
12.0666	10.86365665
12.0868	10.5391262
12.1071	10.79875056
12.1273	10.18214271
12.1476	10.69327816
12.1678	10.45799359
12.1881	10.6445986
12.2083	10.76224088
12.2286	10.5391262
12.2488	10.42148392
12.2691	10.85554339
12.2893	10.62025881
12.3096	10.32818141
12.3298	10.72978784
12.35	10.42554055
12.3703	10.49044664
12.3905	10.60808892
12.4108	10.30384163
12.431	10.57563588
12.4513	10.51478642
12.4715	10.67299501
12.4918	10.3403513
12.512	10.13751978
12.5323	10.69327816
12.5525	10.05233053
12.5728	9.910348465
12.593	10.09695347
12.6133	10.55940935
12.6335	10.09289684
12.6538	10.0077076
12.674	10.1537463
12.6943	9.926574987
12.7145	9.841385745
12.7348	9.959028031
12.755	10.14968967
12.7752	10.29572837
12.7955	9.796762809
12.8157	9.898178573
12.836	9.890065312
12.8562	9.529025192
12.8765	10.0077076
12.8967	9.995537706
12.917	9.553364975
12.9372	10.31601152
12.9575	10.37280435
12.9777	9.58987465
12.998	9.58987465
13.0182	9.715630198
13.0385	9.8089327
13.0587	9.30185388
13.079	9.407326275
13.0992	9.115248874
13.1195	9.314023772
13.1397	9.395156383
13.16	9.249117683
13.1802	9.038172894
13.2004	9.167985072
13.2207	9.391099753
13.2409	8.981380066
13.2612	9.131475397
13.2814	8.831284735
13.3017	8.535150704
13.3219	8.989493327
13.3422	8.896190824
13.3624	8.912417346
13.3827	8.827228104
13.4029	8.912417346
13.4232	8.441848201
13.4434	8.705529187
13.4637	8.494584398
13.4839	8.737982232
13.5042	8.182223845
13.5244	8.802888321
13.5447	8.559490487
13.5649	8.267413087
13.5852	8.194393737
13.6054	7.963165794
13.6257	8.129487648
13.6459	7.983448947
13.6661	8.064581559
13.6864	8.214676889
13.7066	7.687314916
13.7269	8.14571417
13.7471	7.707598069
13.7674	7.512879802
13.7876	7.979392317
13.8079	7.707598069
13.8281	7.411464038
13.8484	7.358727841
13.8686	7.443917082
13.8889	7.460143605
13.9091	7.35061458
13.9294	7.131556529
13.9496	7.776560789
13.9699	7.326274796
13.9901	6.953064784
14.0104	7.196462618
14.0306	6.985517829
14.0509	7.022027504
14.0711	6.685327167
14.0913	7.395237516
14.1116	6.932781632
14.1318	6.685327167
14.1521	6.677213906
14.1723	7.005800982
14.1926	6.880045434
14.2128	6.827309237
14.2331	6.750233256
14.2533	6.514948684
14.2736	6.567684881
14.2938	6.226927914
14.3141	6.332400308
14.3343	6.571741512
14.3546	6.133625411
14.3748	6.076832583
14.3951	6.032209647
14.4153	6.259380958
14.4356	6.63259097
14.4558	5.890227577
14.4761	5.658999635
14.4963	6.133625411
14.5165	6.121455519
14.5368	6.076832583
14.557	5.594093546
14.5773	6.048436169
14.5975	5.796925074
14.6178	5.650886374
14.638	6.182304977
14.6583	5.577867024
14.6785	5.76447203
14.6988	5.379092126
14.719	5.959190297
14.7393	5.642773113
14.7595	6.003813233
14.7798	5.772585291
14.8	5.512960935
14.8203	5.760415399
14.8405	5.561640501
14.8608	5.744188877
14.881	5.423715062
14.9013	5.521074196
14.9215	5.47645126
14.9417	5.411545171
14.962	5.650886374
14.9822	6.206644761
15.0025	6.263437589
15.0227	7.273538599
15.043	8.190337106
15.0632	9.845442376
15.0835	12.34027017
15.1037	15.72755669
15.124	20.21013346
15.1442	22.94024583
15.1645	22.06807026
15.1847	18.42115939
15.205	13.25301205
15.2252	9.427609428
15.2455	6.429759442
15.2657	5.492677782
15.286	4.819277108
15.3062	4.75842765
15.3265	4.681351669
15.3467	4.486633402
15.367	4.738144497
15.3872	4.39738753
15.4074	4.486633402
15.4277	4.665125147
15.4479	4.336538071
15.4682	4.194556002
15.4884	4.194556002
15.5087	4.194556002
15.5289	4.227009046
15.5492	4.259462091
15.5694	4.149933066
15.5897	3.772666423
15.6099	3.934931646
15.6302	3.557665003
15.6504	3.857855665
15.6707	3.67936392
15.6909	3.565778265
15.7112	3.979554582
15.7314	3.687477181
15.7517	3.837572512
15.7719	3.464362501
15.7922	3.878138818
15.8124	3.711816965
15.8326	3.468419131
15.8529	3.448135978
15.8731	3.423796195
15.8934	3.354833475
15.9136	3.293984017
15.9339	3.683420551
15.9541	3.468419131
15.9744	3.330493692
15.9946	3.322380431
16.0149	3.078982597
16.0351	3.484645653
16.0554	3.119548903
16.0756	3.135775425
16.0959	3.310210539
16.1161	2.880207699
16.1364	3.273700864
16.1566	3.087095858
16.1769	2.993793355
16.1971	3.139832055
16.2174	3.220964667
16.2376	2.977566833
16.2578	2.774735305
16.2781	2.782848566
16.2983	2.949170419
16.3186	2.95322705
16.3388	2.851811286
16.3591	3.139832055
16.3793	2.835584763
16.3996	2.693602694
16.4198	2.584073668
16.4401	2.519167579
16.4603	2.661149649
16.4806	2.336619204
16.5008	2.52322421
16.5211	2.876151069
16.5413	2.494827796
16.5616	2.369072249
16.5818	2.45020486
16.6021	2.373128879
16.6223	2.766622044
16.6426	2.604356821
16.6628	2.316336051
16.683	2.214920287
16.7033	2.38124214
16.7235	2.125674415
16.7438	2.356902357
16.764	2.709829216
16.7843	2.37718551
16.8045	2.296052898
16.8248	2.186523873
16.845	2.259543223
16.8653	2.198693765
16.8855	2.271713115
16.9058	2.352845726
16.926	1.930956148
16.9463	2.121617784
16.9665	2.186523873
16.9868	2.036428542
17.007	2.174353982
17.0273	1.94718267
17.0475	2.09322137
17.0678	1.967465823
17.088	2.024258651
17.1082	1.999918867
17.1285	2.060768326
17.1487	2.008032129
17.169	2.194637134
17.1892	1.866050059
17.2095	1.870106689
17.2297	1.740294511
17.25	1.882276581
17.2702	2.145957568
17.2905	1.926899517
17.3107	1.999918867
17.331	1.857936798
17.3512	2.190580504
17.3715	1.878219951
17.3917	1.963409192
17.412	1.882276581
17.4322	2.064824956
17.4525	1.541519614
17.4727	1.663218531
17.493	1.573972658
17.5132	1.707841467
17.5335	1.724067989
17.5537	1.58614255
17.5739	1.663218531
17.5942	1.715954728
17.6144	1.363027869
17.6347	1.651048639
17.6549	1.646992008
17.6752	1.610482333
17.6954	1.736237881
17.7157	1.772747556
17.7359	1.724067989
17.7562	1.533406353
17.7764	1.350857977
17.7967	1.602369072
17.8169	1.3670845
17.8372	1.423877327
17.8574	1.529349722
17.8777	1.294065149
17.8979	1.58614255
17.9182	1.549632875
17.9384	1.492840047
17.9587	1.480670155
17.9789	1.399537544
17.9991	1.184536124
18.0194	1.330574825
18.0396	1.606425703
18.0599	1.387367652
18.0801	1.330574825
18.1004	1.557746136
18.1206	1.302178411
18.1409	1.363027869
18.1611	1.253498844
18.1814	1.358971238
18.2016	1.221045799
18.2219	0.908685246
18.2421	1.415764066
18.2624	1.310291672
18.2826	1.273781997
18.3029	1.245385583
18.3231	1.237272322
18.3434	1.322461563
18.3636	1.08312036
18.3839	1.310291672
18.4041	1.111516774
18.4243	1.172366233
18.4446	1.233215691
18.4648	1.180479494
18.4851	1.306235041
18.5053	1.030384163
18.5256	1.099346882
18.5458	0.961421443
18.5661	1.281895258
18.5863	1.249442213
18.6066	1.131799927
18.6268	1.07906373
18.6471	1.018214271
18.6673	1.026327532
18.6876	0.981704596
18.7078	1.212932538
18.7281	1.176422863
18.7483	0.981704596
18.7686	0.961421443
18.7888	1.095290252
18.8091	1.014157641
18.8293	1.038497424
18.8495	1.018214271
18.8698	1.123686666
18.89	0.957364813
18.9103	0.981704596
18.9305	1.014157641
18.9508	0.973591335
18.971	1.095290252
18.9913	0.989817857
19.0115	1.01010101
19.0318	0.888402093
19.052	1.042554055
19.0723	0.904628615
19.0925	1.038497424
19.1128	0.924911768
19.133	0.920855138
19.1533	0.665287412
19.1735	0.961421443
19.1938	0.900571985
19.214	0.616607846
19.2343	1.176422863
19.2545	0.860005679
19.2748	0.924911768
19.295	1.042554055
19.3152	0.738306762
19.3355	0.904628615
19.3557	0.689627196
19.376	1.15208308
19.3962	0.892458724
19.4165	0.969534704
19.4367	0.900571985
19.457	0.93708166
19.4772	0.709910348
19.4975	1.131799927
19.5177	0.924911768
19.538	0.827552635
19.5582	0.786986329
19.5785	0.79509959
19.5987	0.904628615
19.619	1.038497424
19.6392	0.872175571
19.6595	0.462455884
19.6797	1.038497424
19.7	0.701797087
19.7202	0.860005679
19.7404	0.640947629
19.7607	0.616607846
19.7809	0.93708166
19.8012	0.608494584
19.8214	0.71802361
19.8417	0.742363393
19.8619	0.685570565
19.8822	0.835665896
19.9024	0.645004259
19.9227	0.697740457
19.9429	0.632834368
19.9632	0.803212851
19.9834	0.819439374
20.0037	0.827552635
20.0239	0.584154801
20.0442	0.697740457
20.0644	0.470569145
20.0847	0.665287412
20.1049	0.697740457
20.1252	0.531418604
20.1454	0.892458724
20.1656	0.470569145
20.1859	0.608494584
20.2061	0.713966979
20.2264	0.567928279
20.2466	0.57604154
20.2669	0.831609265
20.2871	0.486795668
20.3074	0.58009817
20.3276	0.762646546
20.3479	0.498965559
20.3681	0.405663056
20.3884	0.498965559
20.4086	0.657174151
20.4289	0.466512515
20.4491	0.57604154
20.4694	0.742363393
20.4896	0.713966979
20.5099	0.466512515
20.5301	0.413776317
20.5504	0.535475234
20.5706	0.555758387
20.5908	0.657174151
20.6111	0.588211432
20.6313	0.657174151
20.6516	0.71802361
20.6718	0.466512515
20.6921	0.547645126
20.7123	0.815382743
20.7326	0.381323273
20.7528	0.523305343
20.7731	0.458399254
20.7933	0.559815018
20.8136	0.474625776
20.8338	0.316417184
20.8541	0.470569145
20.8743	0.669344043
20.8946	0.58009817
20.9148	0.486795668
20.9351	0.405663056
20.9553	0.511135451
20.9756	0.401606426
20.9958	0.584154801
21.016	0.466512515
21.0363	0.470569145
21.0565	0.243397834
21.0768	0.531418604
21.097	0.320473814
21.1173	0.632834368
21.1375	0.482739037
21.1578	0.389436534
21.178	0.604437954
21.1983	0.693683826
21.2185	0.348870228
21.2388	0.409719687
21.259	0.584154801
21.2793	0.571984909
21.2995	0.58009817
21.3198	0.397549795
21.34	0.470569145
21.3603	0.490852298
21.3805	0.324530445
21.4008	0.547645126
21.421	0.486795668
21.4413	0.442172731
21.4615	0.588211432
21.4817	0.332643706
21.502	0.470569145
21.5222	0.632834368
21.5425	0.409719687
21.5627	0.750476654
21.583	0.616607846
21.6032	0.425946209
21.6235	0.543588495
21.6437	0.547645126
21.664	0.409719687
21.6842	0.35698349
21.7045	0.296134031
21.7247	0.324530445
21.745	0.527361973
21.7652	0.336700337
21.7855	0.486795668
21.8057	0.365096751
21.826	0.417832948
21.8462	0.43000284
21.8665	0.454342623
21.8867	0.547645126
21.9069	0.531418604
21.9272	0.458399254
21.9474	0.344813598
21.9677	0.515192081
21.9879	0.43000284
22.0082	0.705853718
22.0284	0.730193501
22.0487	0.640947629
22.0689	0.888402093
22.0892	0.693683826
22.1094	0.742363393
22.1297	0.616607846
22.1499	0.689627196
22.1702	0.778873068
22.1904	0.819439374
22.2107	0.888402093
22.2309	0.961421443
22.2512	0.896515354
22.2714	1.087176991
22.2917	1.058780577
22.3119	0.941138291
22.3321	0.908685246
22.3524	0.920855138
22.3726	1.131799927
22.3929	1.204819277
22.4131	1.22510243
22.4334	1.492840047
22.4536	1.423877327
22.4739	1.626708856
22.4941	1.683501684
22.5144	1.853880167
22.5346	1.918786256
22.5549	1.845766906
22.5751	2.506997688
22.5954	2.202750396
22.6156	2.876151069
22.6359	3.695590443
22.6561	4.936919395
22.6764	7.168066204
22.6966	10.21865239
22.7169	14.39292524
22.7371	19.99918867
22.7573	30.25840737
22.7776	43.73047747
22.7978	59.34039187
22.8181	66.03788893
22.8383	61.50257596
22.8586	51.90864468
22.8788	42.022636
22.8991	29.76349844
22.9193	18.79031277
22.9396	11.83319135
22.9598	7.658918502
22.9801	5.861831163
23.0003	4.583992536
23.0206	4.25134883
23.0408	4.458236988
23.0611	3.740213379
23.0813	3.667194029
23.1016	3.898421971
23.1218	3.906535232
23.1421	3.780779684
23.1623	3.797006207
23.1826	3.411626303
23.2028	3.237191189
23.223	2.648979757
23.2433	2.559733885
23.2635	2.23520344
23.2838	1.707841467
23.304	1.358971238
23.3243	1.095290252
23.3445	1.411707436
23.3648	1.127743296
23.385	1.427933958
23.4053	1.15613971
23.4255	1.184536124
23.4458	1.160196341
23.466	1.042554055
23.4863	1.026327532
23.5065	1.127743296
23.5268	1.00604438
23.547	1.176422863
23.5673	1.15208308
23.5875	0.981704596
23.6078	1.314348302
23.628	1.192649385
23.6482	1.5131232
23.6685	1.212932538
23.6887	1.399537544
23.709	1.285951888
23.7292	1.423877327
23.7495	1.72812462
23.7697	1.671331792
23.79	1.955295931
23.8102	1.764634295
23.8305	1.999918867
23.8507	2.141900937
23.871	2.040485173
23.8912	2.003975498
23.9115	2.052655065
23.9317	2.012088759
23.952	2.198693765
23.9722	2.003975498
23.9925	2.206807026
24.0127	2.251429962
24.033	2.032371912
24.0532	2.09322137
24.0734	1.991805606
24.0937	2.231146809
24.1139	1.930956148
24.1342	2.064824956
24.1544	1.715954728
24.1747	1.65510527
24.1949	1.679445053
24.2152	1.849823537
24.2354	1.630765486
24.2557	1.290008519
24.2759	1.423877327
24.2962	1.379254391
24.3164	1.273781997
24.3367	1.281895258
24.3569	1.273781997
24.3772	1.342744716
24.3974	1.188592755
24.4177	1.480670155
24.4379	1.001987749
24.4582	1.08312036
24.4784	0.973591335
24.4986	0.766703176
24.5189	1.018214271
24.5391	0.645004259
24.5594	0.961421443
24.5796	0.819439374
24.5999	0.961421443
24.6201	0.677457304
24.6404	0.543588495
24.6606	0.888402093
24.6809	0.782929699
24.7011	0.701797087
24.7214	0.555758387
24.7416	0.811326113
24.7619	0.486795668
24.7821	0.640947629
24.8024	0.766703176
24.8226	0.401606426
24.8429	0.624721107
24.8631	0.50707882
24.8834	0.543588495
24.9036	0.628777737
24.9238	0.738306762
24.9441	0.50707882
24.9643	0.600381323
24.9846	0.543588495
25.0048	0.563871648
25.0251	0.636890998
25.0453	0.35698349
25.0656	0.571984909
25.0858	0.58009817
25.1061	0.645004259
25.1263	0.470569145
25.1466	0.527361973
25.1668	0.673400673
25.1871	0.677457304
25.2073	0.689627196
25.2276	0.43405947
25.2478	0.344813598
25.2681	0.482739037
25.2883	0.304247292
25.3086	0.535475234
25.3288	0.43405947
25.3491	0.50302219
25.3693	0.592268062
25.3895	0.344813598
25.4098	0.401606426
25.43	0.677457304
25.4503	0.405663056
25.4705	0.312360553
25.4908	0.413776317
25.511	0.515192081
25.5313	0.43000284
25.5515	0.332643706
25.5718	0.685570565
25.592	0.523305343
25.6123	0.369153381
25.6325	0.397549795
25.6528	0.397549795
25.673	0.328587076
25.6933	0.442172731
25.7135	0.409719687
25.7338	0.50302219
25.754	0.267737617
25.7743	0.377266642
25.7945	0.385379903
25.8147	0.292077401
25.835	0.523305343
25.8552	0.385379903
25.8755	0.312360553
25.8957	0.632834368
25.916	0.446229362
25.9362	0.616607846
25.9565	0.596324693
25.9767	0.417832948
25.997	0.563871648
26.0172	0.770759807
26.0375	0.365096751
26.0577	0.446229362
26.078	0.498965559
26.0982	0.409719687
26.1185	0.438116101
26.1387	0.421889579
26.159	0.344813598
26.1792	0.535475234
26.1995	0.620664476
26.2197	0.450285992
26.2399	0.275850878
26.2602	0.389436534
26.2804	0.438116101
26.3007	0.231227942
26.3209	0.36104012
26.3412	0.352926859
26.3614	0.21905805
26.3817	0.263680987
26.4019	0.43405947
26.4222	0.267737617
26.4424	0.320473814
26.4627	0.348870228
26.4829	0.340756967
26.5032	0.292077401
26.5234	0.397549795
26.5437	0.486795668
26.5639	0.50302219
26.5842	0.365096751
26.6044	0.462455884
26.6247	0.405663056
26.6449	0.308303923
26.6651	0.523305343
26.6854	0.454342623
26.7056	0.239341203
26.7259	0.255567725
26.7461	0.348870228
26.7664	0.478682406
26.7866	0.28802077
26.8069	0.523305343
26.8271	0.474625776
26.8474	0.373210012
26.8676	0.413776317
26.8879	0.446229362
26.9081	0.515192081
26.9284	0.563871648
26.9486	0.340756967
26.9689	0.438116101
26.9891	0.498965559
27.0094	0.409719687
27.0296	0.661230782
27.0499	0.50707882
27.0701	0.263680987
27.0904	0.417832948
27.1106	0.543588495
27.1308	0.490852298
27.1511	0.612551215
27.1713	0.620664476
27.1916	0.600381323
27.2118	0.50707882
27.2321	0.847835788
27.2523	0.494908929
27.2726	0.563871648
27.2928	0.592268062
27.3131	0.839722526
27.3333	0.697740457
27.3536	0.64906089
27.3738	0.657174151
27.3941	0.969534704
27.4143	1.046610685
27.4346	1.277838627
27.4548	1.261612105
27.4751	1.833597014
27.4953	1.590199181
27.5156	2.389355401
27.5358	2.713885846
27.556	3.220964667
27.5763	3.261530972
27.5965	3.367003367
27.6168	3.131718794
27.637	3.180398361
27.6573	3.083039228
27.6775	3.168228469
27.6978	3.058699444
27.718	3.31426717
27.7383	3.119548903
27.7585	3.82134599
27.7788	3.728043487
27.799	3.809176098
27.8193	3.776723054
27.8395	3.541438481
27.8598	3.038416291
27.88	2.498884427
27.9003	2.206807026
27.9205	1.711898097
27.9408	1.253498844
27.961	1.08312036
27.9812	0.953308182
28.0015	1.062837207
28.0217	0.685570565
28.042	0.389436534
28.0622	0.71802361
28.0825	0.661230782
28.1027	0.58009817
28.123	0.72208024
28.1432	0.470569145
28.1635	0.543588495
28.1837	0.551701757
28.204	0.511135451
28.2242	0.381323273
28.2445	0.308303923
28.2647	0.369153381
28.285	0.50707882
28.3052	0.373210012
28.3255	0.584154801
28.3457	0.458399254
28.366	0.498965559
28.3862	0.344813598
28.4064	0.365096751
28.4267	0.490852298
28.4469	0.425946209
28.4672	0.438116101
28.4874	0.50302219
28.5077	0.470569145
28.5279	0.036509675
28.5482	0.50302219
28.5684	0.454342623
28.5887	0.35698349
28.6089	0.413776317
28.6292	0.389436534
28.6494	0.405663056
28.6697	0.352926859
28.6899	0.243397834
28.7102	0.255567725
28.7304	0.43000284
28.7507	0.405663056
28.7709	0.50707882
28.7912	0.348870228
28.8114	0.393493165
28.8316	0.466512515
28.8519	0.348870228
28.8721	0.279907509
28.8924	0.417832948
28.9126	0.421889579
28.9329	0.381323273
28.9531	0.320473814
28.9734	0.316417184
28.9936	0.332643706
29.0139	0.332643706
29.0341	0.296134031
29.0544	0.385379903
29.0746	0.365096751
29.0949	0.332643706
29.1151	0.571984909
29.1354	0.454342623
29.1556	0.608494584
29.1759	0.584154801
29.1961	0.482739037
29.2164	0.563871648
29.2366	0.559815018
29.2569	0.425946209
29.2771	0.421889579
29.2973	0.243397834
29.3176	0.588211432
29.3378	0.401606426
29.3581	0.486795668
29.3783	0.50707882
29.3986	0.369153381
29.4188	0.531418604
29.4391	0.519248712
29.4593	0.567928279
29.4796	0.588211432
29.4998	0.57604154
29.5201	0.762646546
29.5403	0.365096751
29.5606	0.616607846
29.5808	0.640947629
29.6011	0.616607846
29.6213	0.470569145
29.6416	0.511135451
29.6618	0.636890998
29.6821	0.567928279
29.7023	0.620664476
29.7225	0.571984909
29.7428	0.713966979
29.763	0.486795668
29.7833	0.628777737
29.8035	0.608494584
29.8238	0.393493165
29.844	0.413776317
29.8643	0.413776317
29.8845	0.567928279
29.9048	0.604437954
29.925	0.523305343
29.9453	0.515192081
29.9655	0.50302219
29.9858	0.43000284
30.006	0.592268062
30.0263	0.515192081
30.0465	0.482739037
30.0668	0.43405947
30.087	0.470569145
30.1073	0.336700337
30.1275	0.478682406
30.1477	0.413776317
30.168	0.36104012
30.1882	0.535475234
30.2085	0.640947629
30.2287	0.628777737
30.249	0.628777737
30.2692	0.446229362
30.2895	0.377266642
30.3097	0.657174151
30.33	0.511135451
30.3502	0.43405947
30.3705	0.555758387
30.3907	0.535475234
30.411	0.803212851
30.4312	0.661230782
30.4515	0.920855138
30.4717	1.342744716
30.492	1.720011359
30.5122	2.657093019
30.5325	3.488702284
30.5527	5.19248712
30.5729	6.579854773
30.5932	7.151839682
30.6134	6.835422498
30.6337	5.370978865
30.6539	4.717861344
30.6742	4.158046327
30.6944	3.0262464
30.7147	2.003975498
30.7349	1.375197761
30.7552	1.290008519
30.7754	0.64906089
30.7957	0.43000284
30.8159	0.831609265
30.8362	0.754533285
30.8564	0.494908929
30.8767	0.701797087
30.8969	0.604437954
30.9172	0.397549795
30.9374	0.425946209
30.9577	0.50707882
30.9779	0.393493165
30.9982	0.450285992
31.0184	0.348870228
31.0386	0.279907509
31.0589	0.596324693
31.0791	0.486795668
31.0994	0.450285992
31.1196	0.377266642
31.1399	0.413776317
31.1601	0.308303923
31.1804	0.283964139
31.2006	0.474625776
31.2209	0.620664476
31.2411	0.389436534
31.2614	0.413776317
31.2816	0.381323273
31.3019	0.567928279
31.3221	0.393493165
31.3424	0.567928279
31.3626	0.50707882
31.3829	0.624721107
31.4031	0.531418604
31.4234	0.734250132
31.4436	0.79509959
31.4638	0.681513935
31.4841	0.494908929
31.5043	0.539531865
31.5246	0.750476654
31.5448	0.774816437
31.5651	0.876232202
31.5853	1.022270902
31.6056	0.961421443
31.6258	1.107460144
31.6461	0.872175571
31.6663	0.949251552
31.6866	1.15613971
31.7068	1.216989169
31.7271	1.172366233
31.7473	1.050667316
31.7676	1.184536124
31.7878	1.29812178
31.8081	1.026327532
31.8283	1.431990589
31.8486	1.383311022
31.8688	1.15208308
31.889	1.322461563
31.9093	1.22915906
31.9295	1.294065149
31.9498	1.419820697
31.97	1.281895258
31.9903	1.472556894
32.0105	1.326518194
32.0308	1.780860817
32.051	1.638878747
32.0713	1.630765486
32.0915	1.764634295
32.1118	2.02020202
32.132	1.983692345
32.1523	2.45020486
32.1725	2.632753235
32.1928	2.539450732
32.213	2.705772585
32.2333	3.1722851
32.2535	3.598231309
32.2738	3.590118048
32.294	4.332481441
32.3142	4.945032656
32.3345	5.55352724
32.3547	6.721836842
32.375	7.971279056
32.3952	9.610157803
32.4155	12.34027017
32.4357	15.54500832
32.456	20.94032696
32.4762	27.26867064
32.4965	33.54022149
32.5167	41.96584317
32.537	46.23341852
32.5572	46.79323354
32.5775	47.48286074
32.5977	47.80333455
32.618	49.28400471
32.6382	49.03655024
32.6585	51.24335727
32.6787	54.17630116
32.699	57.38509594
32.7192	63.82296864
32.7395	69.98093384
32.7597	73.31954079
32.7799	72.35000608
32.8002	67.33195408
32.8204	60.11520831
32.8407	51.29609346
32.8609	42.03074926
32.8812	33.90126161
32.9014	25.79205712
32.9217	18.61587765
32.9419	13.92641272
32.9622	9.817045962
32.9824	8.133544278
33.0027	6.48655227
33.0229	5.618433329
33.0432	5.387205387
33.0634	4.446067097
33.0837	4.17832948
33.1039	3.180398361
33.1242	3.095209119
33.1444	2.823414872
33.1647	2.38124214
33.1849	2.551620624
33.2051	2.174353982
33.2254	1.939069409
33.2456	1.94718267
33.2659	1.752464403
33.2861	1.667275161
33.3064	1.338688086
33.3266	1.610482333
33.3469	1.436047219
33.3671	1.334631455
33.3874	1.407650805
33.4076	1.391424283
33.4279	1.265668736
33.4481	1.099346882
33.4684	1.07906373
33.4886	1.123686666
33.5089	1.237272322
33.5291	1.387367652
33.5494	1.188592755
33.5696	1.139913188
33.5899	1.131799927
33.6101	1.379254391
33.6303	1.334631455
33.6506	1.500953308
33.6708	1.821427123
33.6911	1.809257231
33.7113	1.744351142
33.7316	1.691614945
33.7518	1.561802767
33.7721	1.760577664
33.7923	1.277838627
33.8126	1.399537544
33.8328	1.22510243
33.8531	1.115573405
33.8733	1.379254391
33.8936	1.346801347
33.9138	1.095290252
33.9341	1.448217111
33.9543	1.123686666
33.9746	1.216989169
33.9948	1.326518194
34.0151	1.318404933
34.0353	1.464443633
34.0555	1.160196341
34.0758	1.51717983
34.096	1.192649385
34.1163	1.050667316
34.1365	1.484726786
34.1568	1.533406353
34.177	1.338688086
34.1973	1.233215691
34.2175	1.249442213
34.2378	1.265668736
34.258	1.395480914
34.2783	1.216989169
34.2985	1.241328952
34.3188	1.411707436
34.339	1.354914608
34.3593	1.001987749
34.3795	1.468500264
34.3998	1.160196341
34.42	1.196706016
34.4403	1.160196341
34.4605	1.22510243
34.4807	0.977647966
34.501	1.111516774
34.5212	1.107460144
34.5415	0.997931118
34.5617	1.034440793
34.582	0.912741877
34.6022	1.022270902
34.6225	0.928968399
34.6427	1.188592755
34.663	1.050667316
34.6832	1.026327532
34.7035	0.961421443
34.7237	1.00604438
34.744	0.811326113
34.7642	0.701797087
34.7845	0.803212851
34.8047	0.912741877
34.825	0.754533285
34.8452	0.750476654
34.8655	1.00604438
34.8857	0.928968399
34.906	0.774816437
34.9262	0.71802361
34.9464	0.669344043
34.9667	0.912741877
34.9869	0.86811894
35.0072	0.612551215
35.0274	0.746420024
35.0477	0.880288832
35.0679	1.018214271
35.0882	0.669344043
35.1084	0.933025029
35.1287	0.746420024
35.1489	0.738306762
35.1692	0.628777737
35.1894	0.673400673
35.2097	0.949251552
35.2299	0.661230782
35.2502	0.924911768
35.2704	0.920855138
35.2907	0.896515354
35.3109	0.685570565
35.3312	0.79509959
35.3514	1.075007099
35.3716	0.661230782
35.3919	0.782929699
35.4121	1.054723946
35.4324	1.014157641
35.4526	0.86811894
35.4729	0.811326113
35.4931	0.799156221
35.5134	0.79509959
35.5336	0.86811894
35.5539	0.888402093
35.5741	1.001987749
35.5944	0.888402093
35.6146	0.827552635
35.6349	0.563871648
35.6551	0.608494584
35.6754	0.79104296
35.6956	0.640947629
35.7159	0.799156221
35.7361	0.64906089
35.7564	0.547645126
35.7766	0.709910348
35.7968	0.697740457
35.8171	0.750476654
35.8373	0.636890998
35.8576	0.766703176
35.8778	0.770759807
35.8981	0.831609265
35.9183	0.571984909
35.9386	0.645004259
35.9588	0.596324693
35.9791	0.673400673
35.9993	0.851892418
36.0196	0.640947629
36.0398	0.551701757
36.0601	0.632834368
36.0803	0.762646546
36.1006	0.880288832
36.1208	0.93708166
36.1411	0.742363393
36.1613	0.681513935
36.1816	0.985761227
36.2018	1.058780577
36.222	1.29812178
36.2423	1.460387003
36.2625	2.097278001
36.2828	2.23520344
36.303	2.413695185
36.3233	2.539450732
36.3435	2.076994848
36.3638	1.720011359
36.384	1.460387003
36.4043	1.606425703
36.4245	1.468500264
36.4448	0.993874488
36.465	0.766703176
36.4853	0.928968399
36.5055	0.523305343
36.5258	0.734250132
36.546	0.600381323
36.5663	0.498965559
36.5865	0.584154801
36.6068	0.527361973
36.627	0.397549795
36.6473	0.616607846
36.6675	0.734250132
36.6877	0.401606426
36.708	0.490852298
36.7282	0.677457304
36.7485	0.421889579
36.7687	0.640947629
36.789	0.421889579
36.8092	0.470569145
36.8295	0.596324693
36.8497	0.373210012
36.87	0.283964139
36.8902	0.555758387
36.9105	0.210944789
36.9307	0.352926859
36.951	0.494908929
36.9712	0.494908929
36.9915	0.486795668
37.0117	0.332643706
37.032	0.551701757
37.0522	0.515192081
37.0725	0.608494584
37.0927	0.300190662
37.1129	0.730193501
37.1332	0.454342623
37.1534	0.470569145
37.1737	0.645004259
37.1939	0.653117521
37.2142	0.547645126
37.2344	0.628777737
37.2547	0.892458724
37.2749	0.774816437
37.2952	0.843779157
37.3154	0.860005679
37.3357	0.778873068
37.3559	0.620664476
37.3762	0.770759807
37.3964	0.746420024
37.4167	0.697740457
37.4369	0.563871648
37.4572	0.673400673
37.4774	0.701797087
37.4977	0.734250132
37.5179	0.693683826
37.5381	0.701797087
37.5584	0.786986329
37.5786	0.973591335
37.5989	0.770759807
37.6191	0.726136871
37.6394	0.624721107
37.6596	0.693683826
37.6799	0.774816437
37.7001	0.86406231
37.7204	1.054723946
37.7406	0.892458724
37.7609	0.681513935
37.7811	0.758589915
37.8014	0.961421443
37.8216	0.701797087
37.8419	0.896515354
37.8621	0.892458724
37.8824	0.71802361
37.9026	0.827552635
37.9229	1.01010101
37.9431	0.888402093
37.9633	0.977647966
37.9836	1.018214271
38.0038	1.310291672
38.0241	1.034440793
38.0443	1.37114113
38.0646	1.537462983
38.0848	1.630765486
38.1051	1.878219951
38.1253	1.967465823
38.1456	1.963409192
38.1658	2.279826376
38.1861	2.474544643
38.2063	2.442091599
38.2266	2.624639974
38.2468	3.042472922
38.2671	2.965396941
38.2873	3.537381851
38.3076	3.837572512
38.3278	4.498803294
38.3481	5.452111476
38.3683	7.026084135
38.3885	10.21459576
38.4088	15.0379295
38.429	25.15516612
38.4493	38.27430936
38.4695	57.9367977
38.4898	78.18344083
38.51	82.15893879
38.5303	70.78414669
38.5505	58.15585575
38.5708	54.0221492
38.591	54.63064379
38.6113	51.048639
38.6315	37.79157032
38.6518	26.89951726
38.672	19.04993712
38.6923	14.22660338
38.7125	11.11111111
38.7328	9.468175733
38.753	7.338444688
38.7733	6.429759442
38.7935	5.646829743
38.8138	4.446067097
38.834	4.17832948
38.8542	3.60228794
38.8745	2.88426433
38.8947	2.600300191
38.915	2.214920287
38.9352	1.890389842
38.9555	1.699728206
38.9757	1.797087339
38.996	1.500953308
39.0162	1.3670845
39.0365	1.346801347
39.0567	1.237272322
39.077	1.014157641
39.0972	0.933025029
39.1175	1.022270902
39.1377	0.872175571
39.158	0.847835788
39.1782	0.713966979
39.1985	0.855949049
39.2187	0.924911768
39.239	0.892458724
39.2592	0.758589915
39.2794	0.86811894
39.2997	0.693683826
39.3199	0.949251552
39.3402	0.770759807
39.3604	0.543588495
39.3807	0.803212851
39.4009	0.831609265
39.4212	0.843779157
39.4414	0.782929699
39.4617	0.709910348
39.4819	0.645004259
39.5022	0.620664476
39.5224	0.782929699
39.5427	0.738306762
39.5629	0.592268062
39.5832	0.941138291
39.6034	0.64906089
39.6237	0.709910348
39.6439	0.681513935
39.6642	0.64906089
39.6844	0.701797087
39.7046	0.563871648
39.7249	0.774816437
39.7451	0.945194921
39.7654	0.685570565
39.7856	0.993874488
39.8059	0.742363393
39.8261	0.57604154
39.8464	0.774816437
39.8666	0.774816437
39.8869	0.774816437
39.9071	0.636890998
39.9274	0.860005679
39.9476	0.819439374
39.9679	0.860005679
39.9881	0.843779157
40.0084	1.014157641
40.0286	0.965478074
40.0489	0.945194921
40.0691	1.245385583
40.0894	1.472556894
40.1096	1.399537544
40.1298	1.427933958
40.1501	1.837653645
40.1703	1.817370492
40.1906	2.178410612
40.2108	2.661149649
40.2311	3.60634457
40.2513	5.257393209
40.2716	7.159952943
40.2918	9.80487607
40.3121	11.80885157
40.3323	12.52687518
40.3526	11.69120928
40.3728	9.326193664
40.3931	7.995618839
40.4133	7.890146444
40.4336	7.744107744
40.4538	6.101172366
40.4741	4.794937325
40.4943	3.09926575
40.5146	2.478601274
40.5348	1.610482333
40.5551	1.578029289
40.5753	1.488783416
40.5955	1.233215691
40.6158	1.111516774
40.636	1.01010101
40.6563	1.038497424
40.6765	0.592268062
40.6968	0.912741877
40.717	0.872175571
40.7373	0.705853718
40.7575	0.786986329
40.7778	0.498965559
40.798	0.559815018
40.8183	0.709910348
40.8385	0.811326113
40.8588	0.64906089
40.879	0.523305343
40.8993	0.616607846
40.9195	0.511135451
40.9398	0.596324693
40.96	0.632834368
40.9803	0.515192081
41.0005	0.413776317
41.0207	0.490852298
41.041	0.279907509
41.0612	0.43405947
41.0815	0.470569145
41.1017	0.535475234
41.122	0.405663056
41.1422	0.588211432
41.1625	0.296134031
41.1827	0.340756967
41.203	0.563871648
41.2232	0.470569145
41.2435	0.413776317
41.2637	0.389436534
41.284	0.348870228
41.3042	0.36104012
41.3245	0.527361973
41.3447	0.584154801
41.365	0.438116101
41.3852	0.490852298
41.4055	0.417832948
41.4257	0.563871648
41.4459	0.563871648
41.4662	0.36104012
41.4864	0.527361973
41.5067	0.519248712
41.5269	0.450285992
41.5472	0.50707882
41.5674	0.442172731
41.5877	0.608494584
41.6079	0.596324693
41.6282	0.389436534
41.6484	0.50302219
41.6687	0.571984909
41.6889	0.36104012
41.7092	0.58009817
41.7294	0.571984909
41.7497	0.628777737
41.7699	0.673400673
41.7902	0.450285992
41.8104	0.58009817
41.8307	0.730193501
41.8509	0.701797087
41.8711	0.860005679
41.8914	0.872175571
41.9116	0.713966979
41.9319	0.86811894
41.9521	0.713966979
41.9724	0.71802361
41.9926	0.58009817
42.0129	0.758589915
42.0331	0.685570565
42.0534	0.636890998
42.0736	0.993874488
42.0939	0.786986329
42.1141	0.677457304
42.1344	0.669344043
42.1546	0.965478074
42.1749	0.831609265
42.1951	0.689627196
42.2154	0.616607846
42.2356	0.766703176
42.2559	0.701797087
42.2761	0.689627196
42.2963	0.677457304
42.3166	0.636890998
42.3368	0.608494584
42.3571	0.616607846
42.3773	0.730193501
42.3976	0.661230782
42.4178	0.657174151
42.4381	0.604437954
42.4583	0.531418604
42.4786	0.762646546
42.4988	0.689627196
42.5191	0.401606426
42.5393	0.612551215
42.5596	0.50707882
42.5798	0.608494584
42.6001	0.661230782
42.6203	0.494908929
42.6406	0.50302219
42.6608	0.421889579
42.6811	0.417832948
42.7013	0.462455884
42.7216	0.563871648
42.7418	0.409719687
42.762	0.446229362
42.7823	0.515192081
42.8025	0.425946209
42.8228	0.527361973
42.843	0.494908929
42.8633	0.43405947
42.8835	0.458399254
42.9038	0.421889579
42.924	0.43405947
42.9443	0.336700337
42.9645	0.397549795
42.9848	0.498965559
43.005	0.381323273
43.0253	0.417832948
43.0455	0.519248712
43.0658	0.515192081
43.086	0.511135451
43.1063	0.531418604
43.1265	0.292077401
43.1468	0.283964139
43.167	0.466512515
43.1872	0.352926859
43.2075	0.393493165
43.2277	0.539531865
43.248	0.365096751
43.2682	0.243397834
43.2885	0.450285992
43.3087	0.369153381
43.329	0.543588495
43.3492	0.616607846
43.3695	0.466512515
43.3897	0.198774898
43.41	0.466512515
43.4302	0.182548375
43.4505	0.279907509
43.4707	0.235284573
43.491	0.316417184
43.5112	0.348870228
43.5315	0.21905805
43.5517	0.344813598
43.572	0.369153381
43.5922	0.300190662
43.6124	0.36104012
43.6327	0.527361973
43.6529	0.385379903
43.6732	0.401606426
43.6934	0.300190662
43.7137	0.35698349
43.7339	0.661230782
43.7542	0.482739037
43.7744	0.442172731
43.7947	0.551701757
43.8149	0.239341203
43.8352	0.304247292
43.8554	0.320473814
43.8757	0.454342623
43.8959	0.340756967
43.9162	0.50707882
43.9364	0.328587076
43.9567	0.50302219
43.9769	0.304247292
43.9972	0.486795668
44.0174	0.43000284
44.0376	0.466512515
44.0579	0.539531865
44.0781	0.446229362
44.0984	0.523305343
44.1186	0.438116101
44.1389	0.385379903
44.1591	0.466512515
44.1794	0.446229362
44.1996	0.283964139
44.2199	0.275850878
44.2401	0.478682406
44.2604	0.584154801
44.2806	0.555758387
44.3009	0.50302219
44.3211	0.555758387
44.3414	0.462455884
44.3616	0.620664476
44.3819	0.645004259
44.4021	0.50302219
44.4224	0.57604154
44.4426	0.677457304
44.4629	0.71802361
44.4831	0.486795668
44.5033	0.734250132
44.5236	0.709910348
44.5438	0.839722526
44.5641	0.754533285
44.5843	0.596324693
44.6046	0.689627196
44.6248	0.523305343
44.6451	0.636890998
44.6653	0.709910348
44.6856	0.584154801
44.7058	0.758589915
44.7261	0.726136871
44.7463	0.632834368
44.7666	0.482739037
44.7868	0.632834368
44.8071	0.697740457
44.8273	0.462455884
44.8476	0.551701757
44.8678	0.778873068
44.8881	0.746420024
44.9083	0.734250132
44.9285	0.551701757
44.9488	0.72208024
44.969	0.608494584
44.9893	0.811326113
45.0095	0.860005679
45.0298	0.689627196
45.05	1.014157641
45.0703	0.738306762
45.0905	0.892458724
45.1108	0.774816437
45.131	0.957364813
45.1513	1.001987749
45.1715	0.973591335
45.1918	1.075007099
45.212	1.241328952
45.2323	1.038497424
45.2525	1.326518194
45.2728	1.290008519
45.293	1.395480914
45.3133	1.237272322
45.3335	1.176422863
45.3537	1.285951888
45.374	1.164252971
45.3942	1.553689505
45.4145	1.310291672
45.4347	1.594255811
45.455	1.488783416
45.4752	1.261612105
45.4955	1.448217111
45.5157	1.245385583
45.536	1.091233621
45.5562	1.277838627
45.5765	1.269725366
45.5967	0.884345463
45.617	1.018214271
45.6372	0.957364813
45.6575	0.981704596
45.6777	0.888402093
45.698	1.022270902
45.7182	0.762646546
45.7385	0.892458724
45.7587	1.018214271
45.7789	0.916798507
45.7992	0.908685246
45.8194	0.762646546
45.8397	0.888402093
45.8599	0.819439374
45.8802	0.689627196
45.9004	0.892458724
45.9207	0.831609265
45.9409	0.916798507
45.9612	0.72208024
45.9814	0.993874488
46.0017	0.973591335
46.0219	1.099346882
46.0422	1.148026449
46.0624	1.257555474
46.0827	1.29812178
46.1029	1.22510243
46.1232	1.484726786
46.1434	1.496896678
46.1637	1.541519614
46.1839	1.606425703
46.2041	2.048598434
46.2244	2.186523873
46.2446	2.531337471
46.2649	2.543507363
46.2851	2.965396941
46.3054	3.24124782
46.3256	3.537381851
46.3459	3.650967506
46.3661	4.141819804
46.3864	4.778710803
46.4066	5.099184617
46.4269	5.654943004
46.4471	6.372966614
46.4674	7.565615999
46.4876	9.776479656
46.5079	14.2022636
46.5281	21.93420145
46.5484	36.61920409
46.5686	59.30793883
46.5889	86.07358728
46.6091	100
46.6294	93.01042554
46.6496	77.36400146
46.6698	64.75193704
46.6901	63.68909983
46.7103	68.39073466
46.7306	70.58537179
46.7508	63.77023244
46.7711	50.44825768
46.7913	37.72666423
46.8116	28.57084905
46.8318	21.41900937
46.8521	18.40898949
46.8723	15.67887712
46.8926	14.03188512
46.9128	11.14762079
46.9331	9.439779319
46.9533	7.833353616
46.9736	6.884102065
46.9938	6.072775952
47.0141	5.882114316
47.0343	5.322299298
47.0546	4.90446635
47.0748	4.68946493
47.095	4.437953836
47.1153	4.466350249
47.1355	4.218895785
47.1558	4.332481441
47.176	3.882195448
47.1963	3.983611213
47.2165	3.906535232
47.2368	4.579935905
47.257	4.579935905
47.2773	5.030221898
47.2975	5.48050789
47.3178	5.707679202
47.338	6.425702811
47.3583	6.888158695
47.3785	7.435803821
47.3988	7.374954363
47.419	7.804957203
47.4393	7.484483388
47.4595	6.616364448
47.4798	6.109285627
47.5	5.375035496
47.5202	4.932862764
47.5405	4.924749503
47.5607	4.393330899
47.581	3.715873595
47.6012	3.375116628
47.6215	2.689546063
47.6417	2.559733885
47.662	1.829540384
47.6822	1.691614945
47.7025	1.561802767
47.7227	1.387367652
47.743	1.492840047
47.7632	1.273781997
47.7835	1.08312036
47.8037	1.046610685
47.824	0.904628615
47.8442	1.087176991
47.8645	0.738306762
47.8847	0.807269482
47.905	0.961421443
47.9252	0.657174151
47.9454	0.904628615
47.9657	0.831609265
47.9859	0.661230782
48.0062	0.786986329
48.0264	0.571984909
48.0467	0.701797087
48.0669	0.446229362
48.0872	0.624721107
48.1074	0.79104296
48.1277	0.592268062
48.1479	0.571984909
48.1682	0.628777737
48.1884	0.474625776
48.2087	0.454342623
48.2289	0.778873068
48.2492	0.693683826
48.2694	0.596324693
48.2897	0.653117521
48.3099	0.328587076
48.3302	0.413776317
48.3504	0.539531865
48.3707	0.730193501
48.3909	0.450285992
48.4111	0.640947629
48.4314	0.413776317
48.4516	0.490852298
48.4719	0.604437954
48.4921	0.43000284
48.5124	0.669344043
48.5326	0.332643706
48.5529	0.397549795
48.5731	0.632834368
48.5934	0.35698349
48.6136	0.774816437
48.6339	0.608494584
48.6541	0.596324693
48.6744	0.292077401
48.6946	0.778873068
48.7149	0.43405947
48.7351	0.478682406
48.7554	0.478682406
48.7756	0.539531865
48.7959	0.490852298
48.8161	0.750476654
48.8363	0.377266642
48.8566	0.58009817
48.8768	0.340756967
48.8971	0.645004259
48.9173	0.515192081
48.9376	0.50707882
48.9578	0.515192081
48.9781	0.612551215
48.9983	0.616607846
49.0186	0.669344043
49.0388	0.567928279
49.0591	0.308303923
49.0793	0.446229362
49.0996	0.531418604
49.1198	0.547645126
49.1401	0.571984909
49.1603	0.454342623
49.1806	0.417832948
49.2008	0.50302219
49.2211	0.454342623
49.2413	0.425946209
49.2615	0.417832948
49.2818	0.571984909
49.302	0.498965559
49.3223	0.653117521
49.3425	0.442172731
49.3628	0.551701757
49.383	0.563871648
49.4033	0.482739037
49.4235	0.746420024
49.4438	0.567928279
49.464	0.397549795
49.4843	0.417832948
49.5045	0.596324693
49.5248	0.669344043
49.545	0.458399254
49.5653	0.604437954
49.5855	0.584154801
49.6058	0.547645126
49.626	0.421889579
49.6463	0.482739037
49.6665	0.417832948
49.6867	0.35698349
49.707	0.438116101
49.7272	0.486795668
49.7475	0.275850878
49.7677	0.494908929
49.788	0.531418604
49.8082	0.348870228
49.8285	0.381323273
49.8487	0.559815018
49.869	0.58009817
49.8892	0.369153381
49.9095	0.567928279
49.9297	0.539531865
49.95	0.478682406
49.9702	0.64906089
49.9905	0.494908929
50.0107	0.324530445
50.031	0.519248712
50.0512	0.401606426
50.0715	0.628777737
50.0917	0.523305343
50.1119	0.438116101
50.1322	0.438116101
50.1524	0.446229362
50.1727	0.316417184
50.1929	0.470569145
50.2132	0.43000284
50.2334	0.259624356
50.2537	0.352926859
50.2739	0.377266642
50.2942	0.474625776
50.3144	0.255567725
50.3347	0.531418604
50.3549	0.519248712
50.3752	0.584154801
50.3954	0.296134031
50.4157	0.344813598
50.4359	0.35698349
50.4562	0.271794248
50.4764	0.50707882
50.4967	0.263680987
50.5169	0.381323273
50.5372	0.275850878
50.5574	0.478682406
50.5776	0.182548375
50.5979	0.312360553
50.6181	0.36104012
50.6384	0.283964139
50.6586	0.385379903
50.6789	0.320473814
50.6991	0.478682406
50.7194	0.393493165
50.7396	0.425946209
50.7599	0.243397834
50.7801	0.478682406
50.8004	0.190661636
50.8206	0.397549795
50.8409	0.304247292
50.8611	0.352926859
50.8814	0.438116101
50.9016	0.393493165
50.9219	0.57604154
50.9421	0.300190662
50.9624	0.543588495
50.9826	0.271794248
51.0028	0.50707882
51.0231	0.300190662
51.0433	0.498965559
51.0636	0.584154801
51.0838	0.466512515
51.1041	0.316417184
51.1243	0.279907509
51.1446	0.523305343
51.1648	0.470569145
51.1851	0.494908929
51.2053	0.58009817
51.2256	0.612551215
51.2458	0.438116101
51.2661	0.72208024
51.2863	0.527361973
51.3066	0.786986329
51.3268	0.693683826
51.3471	0.839722526
51.3673	1.127743296
51.3876	1.533406353
51.4078	2.101334631
51.428	3.022189769
51.4483	3.667194029
51.4685	3.152001947
51.4888	2.673319541
51.509	2.129731045
51.5293	1.626708856
51.5495	1.829540384
51.5698	2.121617784
51.59	2.109447893
51.6103	1.780860817
51.6305	1.44010385
51.6508	0.997931118
51.671	0.872175571
51.6913	0.478682406
51.7115	0.482739037
51.7318	0.689627196
51.752	0.559815018
51.7723	0.543588495
51.7925	0.466512515
51.8128	0.397549795
51.833	0.462455884
51.8532	0.778873068
51.8735	0.527361973
51.8937	0.421889579
51.914	0.425946209
51.9342	0.393493165
51.9545	0.462455884
51.9747	0.308303923
51.995	0.454342623
52.0152	0.385379903
52.0355	0.283964139
52.0557	0.43000284
52.076	0.324530445
52.0962	0.462455884
52.1165	0.470569145
52.1367	0.352926859
52.157	0.535475234
52.1772	0.401606426
52.1975	0.275850878
52.2177	0.373210012
52.238	0.531418604
52.2582	0.482739037
52.2785	0.523305343
52.2987	0.438116101
52.3189	0.462455884
52.3392	0.72208024
52.3594	0.563871648
52.3797	0.677457304
52.3999	0.742363393
52.4202	0.860005679
52.4404	1.054723946
52.4607	1.070950469
52.4809	1.492840047
52.5012	1.651048639
52.5214	2.052655065
52.5417	2.218976918
52.5619	2.113504523
52.5822	2.251429962
52.6024	2.490771165
52.6227	2.657093019
52.6429	2.997849986
52.6632	3.074925966
52.6834	2.766622044
52.7037	2.734168999
52.7239	2.291996268
52.7441	2.206807026
52.7644	2.227090179
52.7846	2.214920287
52.8049	2.003975498
52.8251	1.793030709
52.8454	1.578029289
52.8656	1.452273741
52.8859	1.204819277
52.9061	1.184536124
52.9264	1.233215691
52.9466	1.07906373
52.9669	1.192649385
52.9871	0.945194921
53.0074	1.042554055
53.0276	1.034440793
53.0479	0.855949049
53.0681	1.29812178
53.0884	1.034440793
53.1086	1.139913188
53.1289	1.115573405
53.1491	1.107460144
53.1693	1.188592755
53.1896	1.131799927
53.2098	1.290008519
53.2301	1.484726786
53.2503	1.565859397
53.2706	1.253498844
53.2908	1.310291672
53.3111	1.075007099
53.3313	1.066893838
53.3516	1.087176991
53.3718	0.86406231
53.3921	0.709910348
53.4123	0.908685246
53.4326	0.823496004
53.4528	0.72208024
53.4731	0.592268062
53.4933	0.653117521
53.5136	0.685570565
53.5338	0.543588495
53.5541	0.612551215
53.5743	0.539531865
53.5945	0.401606426
53.6148	0.470569145
53.635	0.381323273
53.6553	0.308303923
53.6755	0.328587076
53.6958	0.389436534
53.716	0.373210012
53.7363	0.498965559
53.7565	0.442172731
53.7768	0.393493165
53.797	0.584154801
53.8173	0.365096751
53.8375	0.377266642
53.8578	0.340756967
53.878	0.58009817
53.8983	0.324530445
53.9185	0.470569145
53.9388	0.352926859
53.959	0.178491745
53.9793	0.462455884
53.9995	0.490852298
54.0197	0.283964139
54.04	0.515192081
54.0602	0.397549795
54.0805	0.442172731
54.1007	0.133868809
54.121	0.344813598
54.1412	0.409719687
54.1615	0.458399254
54.1817	0.458399254
54.202	0.271794248
54.2222	0.340756967
54.2425	0.35698349
54.2627	0.393493165
54.283	0.332643706
54.3032	0.389436534
54.3235	0.446229362
54.3437	0.397549795
54.364	0.377266642
54.3842	0.344813598
54.4045	0.478682406
54.4247	0.328587076
54.445	0.531418604
54.4652	0.320473814
54.4854	0.393493165
54.5057	0.43000284
54.5259	0.348870228
54.5462	0.478682406
54.5664	0.592268062
54.5867	0.571984909
54.6069	0.490852298
54.6272	0.547645126
54.6474	0.478682406
54.6677	0.762646546
54.6879	0.636890998
54.7082	0.746420024
54.7284	0.673400673
54.7487	0.738306762
54.7689	0.855949049
54.7892	0.831609265
54.8094	1.131799927
54.8297	1.395480914
54.8499	1.569916028
54.8702	2.429921707
54.8904	3.403513042
54.9106	5.310129407
54.9309	8.567603748
54.9511	10.94884589
54.9714	11.9995132
54.9916	10.73384447
55.0119	9.683177153
55.0321	7.849580139
55.0524	6.961178046
55.0726	6.831365868
55.0929	7.64269198
55.1131	7.938826011
55.1334	7.614295566
55.1536	6.259380958
55.1739	5.062674942
55.1941	3.829459251
55.2144	3.087095858
55.2346	2.855867916
55.2549	2.429921707
55.2751	2.137844307
55.2954	1.496896678
55.3156	1.793030709
55.3358	1.549632875
55.3561	1.066893838
55.3763	1.143969819
55.3966	1.07906373
55.4168	1.070950469
55.4371	1.026327532
55.4573	0.86811894
55.4776	0.661230782
55.4978	0.957364813
55.5181	0.831609265
55.5383	0.636890998
55.5586	0.693683826
55.5788	0.79509959
55.5991	0.592268062
55.6193	0.807269482
55.6396	0.466512515
55.6598	0.782929699
55.6801	1.00604438
55.7003	0.693683826
55.7206	0.823496004
55.7408	0.961421443
55.761	0.596324693
55.7813	0.543588495
55.8015	0.50302219
55.8218	0.750476654
55.842	0.535475234
55.8623	0.949251552
55.8825	0.57604154
55.9028	0.547645126
55.923	0.519248712
55.9433	0.300190662
55.9635	0.515192081
55.9838	0.450285992
56.004	0.324530445
56.0243	0.401606426
56.0445	0.259624356
56.0648	0.494908929
56.085	0.438116101
56.1053	0.685570565
56.1255	0.563871648
56.1458	0.389436534
56.166	0.28802077
56.1863	0.28802077
56.2065	0.474625776
56.2267	0.413776317
56.247	0.328587076
56.2672	0.563871648
56.2875	0.166321853
56.3077	0.478682406
56.328	0.340756967
56.3482	0.470569145
56.3685	0.450285992
56.3887	0.365096751
56.409	0.462455884
56.4292	0.494908929
56.4495	0.373210012
56.4697	0.547645126
56.49	0.389436534
56.5102	0.413776317
56.5305	0.425946209
56.5507	0.478682406
56.571	0.478682406
56.5912	0.50707882
56.6115	0.328587076
56.6317	0.632834368
56.6519	0.35698349
56.6722	0.365096751
56.6924	0.332643706
56.7127	0.328587076
56.7329	0.494908929
56.7532	0.385379903
56.7734	0.43405947
56.7937	0.470569145
56.8139	0.478682406
56.8342	0.543588495
56.8544	0.397549795
56.8747	0.389436534
56.8949	0.519248712
56.9152	0.478682406
56.9354	0.511135451
56.9557	0.43000284
56.9759	0.531418604
56.9962	0.458399254
57.0164	0.397549795
57.0367	0.401606426
57.0569	0.535475234
57.0771	0.324530445
57.0974	0.519248712
57.1176	0.267737617
57.1379	0.369153381
57.1581	0.409719687
57.1784	0.551701757
57.1986	0.454342623
57.2189	0.511135451
57.2391	0.283964139
57.2594	0.466512515
57.2796	0.393493165
57.2999	0.442172731
57.3201	0.409719687
57.3404	0.547645126
57.3606	0.401606426
57.3809	0.567928279
57.4011	0.535475234
57.4214	0.645004259
57.4416	0.555758387
57.4619	0.470569145
57.4821	0.511135451
57.5023	0.490852298
57.5226	0.539531865
57.5428	0.389436534
57.5631	0.669344043
57.5833	0.746420024
57.6036	0.58009817
57.6238	0.604437954
57.6441	0.709910348
57.6643	0.79104296
57.6846	0.750476654
57.7048	0.900571985
57.7251	0.811326113
57.7453	0.827552635
57.7656	1.188592755
57.7858	1.237272322
57.8061	1.062837207
57.8263	1.468500264
57.8466	1.346801347
57.8668	1.618595594
57.8871	1.521236461
57.9073	2.133787676
57.9275	2.101334631
57.9478	2.141900937
57.968	2.620583343
57.9883	2.795018458
58.0085	3.164171839
58.0288	3.999837735
58.049	4.356821224
58.0693	5.991643341
58.0895	8.441848201
58.1098	12.0116831
58.13	15.78029289
58.1503	19.1270131
58.1705	20.4007951
58.1908	19.44748692
58.211	17.97493002
58.2313	16.88775303
58.2515	16.59567563
58.2718	16.56322259
58.292	16.5388828
58.3123	16.43341041
58.3325	16.03180398
58.3528	14.14547077
58.373	12.22262789
58.3932	11.43158493
58.4135	10.47016348
58.4337	9.606101172
58.454	8.1497708
58.4742	7.188349357
58.4945	6.92061174
58.5147	6.77457304
58.535	6.575798142
58.5552	6.612307817
58.5755	6.908441848
58.5957	7.261368707
58.616	7.504766541
58.6362	7.938826011
58.6565	7.934769381
58.6767	7.618352197
58.697	7.504766541
58.7172	6.567684881
58.7375	5.740132246
58.7577	5.143807553
58.778	5.204657012
58.7982	5.439941585
58.8184	4.989655592
58.8387	4.652955255
58.8589	3.955214799
58.8792	3.362946736
58.8994	2.551620624
58.9197	2.52322421
58.9399	2.02020202
58.9602	1.870106689
58.9804	1.541519614
59.0007	1.51717983
59.0209	1.172366233
59.0412	1.050667316
59.0614	1.131799927
59.0817	0.843779157
59.1019	0.782929699
59.1222	0.762646546
59.1424	0.726136871
59.1627	0.709910348
59.1829	0.778873068
59.2032	0.604437954
59.2234	0.547645126
59.2436	0.681513935
59.2639	0.689627196
59.2841	0.409719687
59.3044	0.442172731
59.3246	0.312360553
59.3449	0.588211432
59.3651	0.377266642
59.3854	0.531418604
59.4056	0.511135451
59.4259	0.438116101
59.4461	0.547645126
59.4664	0.527361973
59.4866	0.369153381
59.5069	0.466512515
59.5271	0.373210012
59.5474	0.470569145
59.5676	0.292077401
59.5879	0.600381323
59.6081	0.373210012
59.6284	0.442172731
59.6486	0.482739037
59.6688	0.478682406
59.6891	0.425946209
59.7093	0.275850878
59.7296	0.515192081
59.7498	0.50302219
59.7701	0.474625776
59.7903	0.405663056
59.8106	0.328587076
59.8308	0.247454464
59.8511	0.563871648
59.8713	0.344813598
59.8916	0.369153381
59.9118	0.661230782
59.9321	0.271794248
59.9523	0.344813598
59.9726	0.365096751
59.9928	0.186605006
60.0131	0.271794248
60.0333	0.401606426
60.0536	0.227171312
60.0738	0.490852298
60.0941	0.462455884
60.1143	0.405663056
60.1345	0.43000284
60.1548	0.385379903
60.175	0.442172731
60.1953	0.413776317
60.2155	0.535475234
60.2358	0.612551215
60.256	0.93708166
60.2763	0.953308182
60.2965	0.900571985
60.3168	1.131799927
60.337	1.022270902
60.3573	0.819439374
60.3775	1.014157641
60.3978	1.200762647
60.418	1.168309602
60.4383	1.464443633
60.4585	1.233215691
60.4788	1.326518194
60.499	1.22915906
60.5193	1.107460144
60.5395	1.087176991
60.5597	0.957364813
60.58	1.07906373
60.6002	0.770759807
60.6205	0.908685246
60.6407	0.758589915
60.661	0.79509959
60.6812	0.490852298
60.7015	0.596324693
60.7217	0.446229362
60.742	0.332643706
60.7622	0.486795668
60.7825	0.389436534
60.8027	0.300190662
60.823	0.271794248
60.8432	0.474625776
60.8635	0.328587076
60.8837	0.36104012
60.904	0.470569145
60.9242	0.515192081
60.9445	0.539531865
60.9647	0.308303923
60.9849	0.344813598
61.0052	0.381323273
61.0254	0.332643706
61.0457	0.397549795
61.0659	0.365096751
61.0862	0.340756967
61.1064	0.43405947
61.1267	0.43000284
61.1469	0.425946209
61.1672	0.417832948
61.1874	0.498965559
61.2077	0.466512515
61.2279	0.425946209
61.2482	0.563871648
61.2684	0.50707882
61.2887	0.405663056
61.3089	0.450285992
61.3292	0.365096751
61.3494	0.401606426
61.3697	0.389436534
61.3899	0.340756967
61.4101	0.385379903
61.4304	0.389436534
61.4506	0.539531865
61.4709	0.50302219
61.4911	0.275850878
61.5114	0.283964139
61.5316	0.511135451
61.5519	0.498965559
61.5721	0.312360553
61.5924	0.369153381
61.6126	0.50302219
61.6329	0.21500142
61.6531	0.539531865
61.6734	0.425946209
61.6936	0.304247292
61.7139	0.304247292
61.7341	0.425946209
61.7544	0.409719687
61.7746	0.482739037
61.7949	0.300190662
61.8151	0.381323273
61.8353	0.344813598
61.8556	0.490852298
61.8758	0.409719687
61.8961	0.498965559
61.9163	0.539531865
61.9366	0.608494584
61.9568	0.669344043
61.9771	0.689627196
61.9973	0.811326113
62.0176	1.001987749
62.0378	1.176422863
62.0581	1.594255811
62.0783	1.642935378
62.0986	1.975579084
62.1188	1.890389842
62.1391	1.813313862
62.1593	1.569916028
62.1796	1.73218125
62.1998	1.65510527
62.2201	1.606425703
62.2403	1.922842887
62.2606	2.052655065
62.2808	2.072938218
62.301	1.776804186
62.3213	1.638878747
62.3415	1.423877327
62.3618	1.44416048
62.382	1.419820697
62.4023	1.415764066
62.4225	1.131799927
62.4428	1.314348302
62.463	1.253498844
62.4833	1.545576244
62.5035	1.358971238
62.5238	1.160196341
62.544	1.464443633
62.5643	1.724067989
62.5845	2.02020202
62.6048	1.914729626
62.625	2.064824956
62.6453	2.170297351
62.6655	1.935012778
62.6858	1.817370492
62.706	1.6591619
62.7262	1.496896678
62.7465	1.505009939
62.7667	1.606425703
62.787	1.395480914
62.8072	1.22510243
62.8275	0.985761227
62.8477	0.924911768
62.868	0.701797087
62.8882	0.965478074
62.9085	0.645004259
62.9287	0.636890998
62.949	0.645004259
62.9692	0.409719687
62.9895	0.519248712
63.0097	0.275850878
63.03	0.458399254
63.0502	0.450285992
63.0705	0.231227942
63.0907	0.43000284
63.111	0.551701757
63.1312	0.401606426
63.1514	0.271794248
63.1717	0.28802077
63.1919	0.271794248
63.2122	0.210944789
63.2324	0.490852298
63.2527	0.186605006
63.2729	0.336700337
63.2932	0.085189242
63.3134	0.251511095
63.3337	0.308303923
63.3539	0.21500142
63.3742	0.198774898
63.3944	0.194718267
63.4147	0.21905805
63.4349	0.336700337
63.4552	0.381323273
63.4754	0.117642286
63.4957	0.486795668
63.5159	0.109529025
63.5362	0.519248712
63.5564	0.344813598
63.5766	0.267737617
63.5969	0.393493165
63.6171	0.531418604
63.6374	0.515192081
63.6576	0.693683826
63.6779	0.628777737
63.6981	0.438116101
63.7184	0.531418604
63.7386	0.478682406
63.7589	0.417832948
63.7791	0.373210012
63.7994	0.271794248
63.8196	0.454342623
63.8399	0.450285992
63.8601	0.409719687
63.8804	0.292077401
63.9006	0.369153381
63.9209	0.397549795
63.9411	0.438116101
63.9614	0.320473814
63.9816	0.239341203
64.0019	0.373210012
64.0221	0.093302503
64.0423	0.275850878
64.0626	0.28802077
64.0828	0.154151961
64.1031	0.227171312
64.1233	0.178491745
64.1436	0.077075981
64.1638	0.178491745
64.1841	0.271794248
64.2043	0.158208592
64.2246	0.405663056
64.2448	0.133868809
64.2651	0.259624356
64.2853	0.129812178
64.3056	0.129812178
64.3258	0.206888159
64.3461	0.166321853
64.3663	0.21500142
64.3866	0.389436534
64.4068	0.174435114
64.4271	0.283964139
64.4473	0.21500142
64.4675	0.190661636
64.4878	0.162265223
64.508	0.385379903
64.5283	0.150095331
64.5485	0
64.5688	0.178491745
64.589	0.239341203
64.6093	0.235284573
64.6295	0.283964139
64.6498	0.271794248
64.67	0.235284573
64.6903	0.470569145
64.7105	0.227171312
64.7308	0.275850878
64.751	0.129812178
64.7713	0.243397834
64.7915	0.247454464
64.8118	0.231227942
64.832	0.239341203
64.8523	0.365096751
64.8725	0.35698349
64.8927	0.064906089
64.913	0.279907509
64.9332	0.235284573
64.9535	0.060849458
64.9737	0.35698349
64.994	0.320473814
65.0142	0.271794248
65.0345	0.462455884
65.0547	0.227171312
65.075	0.223114681
65.0952	0.275850878
65.1155	0.1460387
65.1357	0.223114681
65.156	0.223114681
65.1762	0.409719687
65.1965	0.320473814
65.2167	0.227171312
65.237	0.174435114
65.2572	0.352926859
65.2775	0.474625776
65.2977	0.571984909
65.3179	0.198774898
65.3382	0.381323273
65.3584	0.312360553
65.3787	0.624721107
65.3989	0.421889579
65.4192	0.701797087
65.4394	0.713966979
65.4597	1.127743296
65.4799	1.37114113
65.5002	1.971522453
65.5204	2.085108109
65.5407	1.736237881
65.5609	1.521236461
65.5812	1.172366233
65.6014	1.212932538
65.6217	0.949251552
65.6419	1.042554055
65.6622	0.969534704
65.6824	1.212932538
65.7027	1.058780577
65.7229	1.042554055
65.7431	0.949251552
65.7634	0.782929699
65.7836	0.535475234
65.8039	0.551701757
65.8241	0.336700337
65.8444	0.089245872
65.8646	0.304247292
65.8849	0.486795668
65.9051	0.438116101
65.9254	0.486795668
65.9456	0.35698349
65.9659	0.377266642
65.9861	0.259624356
66.0064	0.21905805
66.0266	0.308303923
66.0469	0.267737617
66.0671	0.14198207
66.0874	0.43405947
66.1076	0.275850878
66.1279	0.052736197
66.1481	0.36104012
66.1684	0.312360553
66.1886	0.113585656
66.2088	0.07301935
66.2291	0.393493165
66.2493	0.21905805
66.2696	0.324530445
66.2898	0.43000284
66.3101	0.267737617
66.3303	0.263680987
66.3506	0.202831528
66.3708	0.300190662
66.3911	0.320473814
66.4113	0.121698917
66.4316	0.077075981
66.4518	0.206888159
66.4721	0.328587076
66.4923	0.251511095
66.5126	0.340756967
66.5328	0.174435114
66.5531	0.275850878
66.5733	0.308303923
66.5936	0.28802077
66.6138	0.243397834
66.634	0.409719687
66.6543	0.425946209
66.6745	0.365096751
66.6948	0.36104012
66.715	0.425946209
66.7353	0.239341203
66.7555	0.271794248
66.7758	0.154151961
66.796	0.28802077
66.8163	0.340756967
66.8365	0.36104012
66.8568	0.117642286
66.877	0.21905805
66.8973	0.251511095
66.9175	0.198774898
66.9378	0.292077401
66.958	0.239341203
66.9783	0.21905805
66.9985	0.377266642
67.0188	0.178491745
67.039	0.438116101
67.0592	0.275850878
67.0795	0.312360553
67.0997	0.300190662
67.12	0.296134031
67.1402	0.235284573
67.1605	0.210944789
67.1807	0.255567725
67.201	0.21905805
67.2212	0.470569145
67.2415	0.397549795
67.2617	0.470569145
67.282	0.369153381
67.3022	0.527361973
67.3225	0.316417184
67.3427	0.129812178
67.363	0.397549795
67.3832	0.304247292
67.4035	0.458399254
67.4237	0.421889579
67.444	0.231227942
67.4642	0.50302219
67.4844	0.316417184
67.5047	0.389436534
67.5249	0.324530445
67.5452	0.43405947
67.5654	0.369153381
67.5857	0.705853718
67.6059	0.645004259
67.6262	0.547645126
67.6464	0.653117521
67.6667	0.677457304
67.6869	0.454342623
67.7072	0.478682406
67.7274	0.547645126
67.7477	0.438116101
67.7679	0.450285992
67.7882	0.762646546
67.8084	0.669344043
67.8287	0.571984909
67.8489	0.600381323
67.8692	0.709910348
67.8894	0.888402093
67.9097	0.596324693
67.9299	0.539531865
67.9501	0.79509959
67.9704	1.01010101
67.9906	1.001987749
68.0109	1.310291672
68.0311	1.285951888
68.0514	1.5131232
68.0716	2.052655065
68.0919	2.571903777
68.1121	2.847754655
68.1324	3.39134315
68.1526	3.423796195
68.1729	3.330493692
68.1931	2.985680094
68.2134	2.835584763
68.2336	2.498884427
68.2539	2.482657904
68.2741	2.559733885
68.2944	2.535394102
68.3146	2.59218693
68.3349	3.269644233
68.3551	2.758508783
68.3753	2.730112369
68.3956	2.693602694
68.4158	2.608413452
68.4361	2.575960407
68.4563	3.054642814
68.4766	2.81124498
68.4968	3.269644233
68.5171	3.525211959
68.5373	4.097196868
68.5576	4.738144497
68.5778	6.020039755
68.5981	6.393249767
68.6183	7.687314916
68.6386	7.50070991
68.6588	8.681189404
68.6791	8.43373494
68.6993	8.591943532
68.7196	8.701472557
68.7398	8.778548538
68.7601	9.224777899
68.7803	8.835341365
68.8005	7.959109164
68.8208	7.155896313
68.841	6.904385218
68.8613	5.882114316
68.8815	5.748245507
68.9018	5.47645126
68.922	5.172203967
68.9423	4.843616892
68.9625	3.918705124
68.9828	3.415682934
69.003	2.843698024
69.0233	2.559733885
69.0435	2.024258651
69.0638	2.036428542
69.084	1.403594175
69.1043	1.326518194
69.1245	0.908685246
69.1448	1.164252971
69.165	0.957364813
69.1853	0.892458724
69.2055	0.734250132
69.2257	0.653117521
69.246	0.758589915
69.2662	0.600381323
69.2865	0.511135451
69.3067	0.636890998
69.327	0.409719687
69.3472	0.628777737
69.3675	0.462455884
69.3877	0.535475234
69.408	0.409719687
69.4282	0.539531865
69.4485	0.438116101
69.4687	0.50707882
69.489	0.535475234
69.5092	0.275850878
69.5295	0.21905805
69.5497	0.547645126
69.57	0.344813598
69.5902	0.336700337
69.6105	0.409719687
69.6307	0.239341203
69.6509	0.381323273
69.6712	0.511135451
69.6914	0.170378484
69.7117	0.255567725
69.7319	0.450285992
69.7522	0.255567725
69.7724	0.43405947
69.7927	0.352926859
69.8129	0.482739037
69.8332	0.235284573
69.8534	0.320473814
69.8737	0.28802077
69.8939	0.210944789
69.9142	0.312360553
69.9344	0.470569145
69.9547	0.385379903
69.9749	0.332643706
69.9952	0.397549795
70.0154	0.154151961
70.0357	0.385379903
70.0559	0.332643706
70.0762	0.320473814
70.0964	0.316417184
70.1166	0.320473814
70.1369	0.267737617
70.1571	0.243397834
70.1774	0.328587076
70.1976	0.397549795
70.2179	0.486795668
70.2381	0.158208592
70.2584	0.308303923
70.2786	0.369153381
70.2989	0.312360553
70.3191	0.170378484
70.3394	0.377266642
70.3596	0.462455884
70.3799	0.162265223
70.4001	0.14198207
70.4204	0.336700337
70.4406	0.178491745
70.4609	0.450285992
70.4811	0.07301935
70.5014	0.170378484
70.5216	0.235284573
70.5418	0.182548375
70.5621	0.194718267
70.5823	0.308303923
70.6026	0.421889579
70.6228	0.344813598
70.6431	0.178491745
70.6633	0.292077401
70.6836	0.182548375
70.7038	0.308303923
70.7241	0.296134031
70.7443	0.255567725
70.7646	0.194718267
70.7848	0.50302219
70.8051	0.247454464
70.8253	0.328587076
70.8456	0.365096751
70.8658	0.316417184
70.8861	0.397549795
70.9063	0.300190662
70.9266	0.235284573
70.9468	0.348870228
70.967	0.279907509
70.9873	0.336700337
71.0075	0.1460387
71.0278	0.336700337
71.048	0.07301935
71.0683	0.373210012
71.0885	0.340756967
71.1088	0.247454464
71.129	0.202831528
71.1493	0.389436534
71.1695	0.292077401
71.1898	0.14198207
71.21	0.247454464
71.2303	0.35698349
71.2505	0.251511095
71.2708	0.081132611
71.291	0.210944789
71.3113	0.247454464
71.3315	0.255567725
71.3518	0.21905805
71.372	0.206888159
71.3922	0.247454464
71.4125	0.283964139
71.4327	0.182548375
71.453	0.255567725
71.4732	0.373210012
71.4935	0.210944789
71.5137	0.36104012
71.534	0.231227942
71.5542	0.085189242
71.5745	0.223114681
71.5947	0.07301935
71.615	0.162265223
71.6352	0.178491745
71.6555	0.150095331
71.6757	0.186605006
71.696	0.283964139
71.7162	0.198774898
71.7365	0.442172731
71.7567	0.150095331
71.777	0.077075981
71.7972	0.060849458
71.8175	0.235284573
71.8377	0.478682406
71.8579	0.198774898
71.8782	0.101415764
71.8984	0.271794248
71.9187	0.239341203
71.9389	0.064906089
71.9592	0.133868809
71.9794	0.182548375
71.9997	0.271794248
72.0199	0.304247292
72.0402	0.275850878
72.0604	0.125755547
72.0807	0.040566306
72.1009	0.279907509
72.1212	0.247454464
72.1414	0.186605006
72.1617	0.1460387
72.1819	0.397549795
72.2022	0.263680987
72.2224	0.174435114
72.2427	0.182548375
72.2629	0.085189242
72.2831	0.105472395
72.3034	0.093302503
72.3236	0.227171312
72.3439	0.182548375
72.3641	0.336700337
72.3844	0.182548375
72.4046	0.348870228
72.4249	0.344813598
72.4451	0.21905805
72.4654	0.43000284
72.4856	0.259624356
72.5059	0.494908929
72.5261	0.348870228
72.5464	0.125755547
72.5666	0.50707882
72.5869	0.336700337
72.6071	0.478682406
72.6274	0.348870228
72.6476	0.35698349
72.6679	0.523305343
72.6881	0.799156221
72.7083	0.928968399
72.7286	1.192649385
72.7488	2.024258651
72.7691	2.855867916
72.7893	3.269644233
72.8096	3.152001947
72.8298	3.119548903
72.8501	2.263599854
72.8703	2.23520344
72.8906	1.87416332
72.9108	1.780860817
72.9311	1.691614945
72.9513	1.971522453
72.9716	2.243316701
72.9918	2.243316701
73.0121	2.425865076
73.0323	2.129731045
73.0526	2.312279421
73.0728	2.048598434
73.0931	1.561802767
73.1133	1.427933958
73.1335	1.22510243
73.1538	1.196706016
73.174	0.93708166
73.1943	0.961421443
73.2145	1.046610685
73.2348	0.819439374
73.255	1.123686666
73.2753	1.091233621
73.2955	0.831609265
73.3158	0.709910348
73.336	0.961421443
73.3563	0.876232202
73.3765	1.066893838
73.3968	1.046610685
73.417	1.15613971
73.4373	1.302178411
73.4575	1.395480914
73.4778	1.5131232
73.498	1.509066569
73.5183	1.22915906
73.5385	1.391424283
73.5587	1.058780577
73.579	1.001987749
73.5992	0.754533285
73.6195	0.762646546
73.6397	0.93708166
73.66	0.920855138
73.6802	0.79509959
73.7005	0.900571985
73.7207	0.835665896
73.741	0.815382743
73.7612	0.551701757
73.7815	0.616607846
73.8017	0.478682406
73.822	0.498965559
73.8422	0.308303923
73.8625	0.340756967
73.8827	0.243397834
73.903	0.377266642
73.9232	0.292077401
73.9435	0.235284573
73.9637	0.129812178
73.984	0.377266642
74.0042	0.381323273
74.0244	0.35698349
74.0447	0.344813598
74.0649	0.247454464
74.0852	0.450285992
74.1054	0.255567725
74.1257	0.150095331
74.1459	0.348870228
74.1662	0.50302219
74.1864	0.373210012
74.2067	0.389436534
74.2269	0.332643706
74.2472	0.162265223
74.2674	0.320473814
74.2877	0.198774898
74.3079	0.174435114
74.3282	0.304247292
74.3484	0.121698917
74.3687	0.296134031
74.3889	0.442172731
74.4092	0.243397834
74.4294	0.243397834
74.4496	0.320473814
74.4699	0.251511095
74.4901	0.186605006
74.5104	0.117642286
74.5306	0.223114681
74.5509	0.381323273
74.5711	0.113585656
74.5914	0.267737617
74.6116	0.316417184
74.6319	0.275850878
74.6521	0.170378484
74.6724	0.247454464
74.6926	0.085189242
74.7129	0.348870228
74.7331	0.239341203
74.7534	0.381323273
74.7736	0.304247292
74.7939	0.458399254
74.8141	0.267737617
74.8344	0.336700337
74.8546	0.198774898
74.8748	0.385379903
74.8951	0.50707882
74.9153	0.547645126
74.9356	0.563871648
74.9558	0.803212851
74.9761	0.79104296
74.9963	0.742363393
75.0166	0.478682406
75.0368	0.665287412
75.0571	0.851892418
75.0773	0.592268062
75.0976	0.701797087
75.1178	0.588211432
75.1381	0.50302219
75.1583	0.596324693
75.1786	0.673400673
75.1988	0.693683826
75.2191	0.71802361
75.2393	0.730193501
75.2596	0.612551215
75.2798	0.730193501
75.3	0.486795668
75.3203	0.555758387
75.3405	0.450285992
75.3608	0.616607846
75.381	0.462455884
75.4013	0.498965559
75.4215	0.519248712
75.4418	0.774816437
75.462	0.669344043
75.4823	0.498965559
75.5025	0.705853718
75.5228	0.563871648
75.543	0.515192081
75.5633	0.645004259
75.5835	0.608494584
75.6038	0.750476654
75.624	0.279907509
75.6443	0.543588495
75.6645	0.462455884
75.6848	0.397549795
75.705	0.438116101
75.7253	0.490852298
75.7455	0.373210012
75.7657	0.300190662
75.786	0.251511095
75.8062	0.365096751
75.8265	0.267737617
75.8467	0.202831528
75.867	0.365096751
75.8872	0.251511095
75.9075	0.223114681
75.9277	0.251511095
75.948	0.312360553
75.9682	0.263680987
75.9885	0.198774898
76.0087	0.239341203
76.029	0.369153381
76.0492	0.304247292
76.0695	0.251511095
76.0897	0.158208592
76.11	0.210944789
76.1302	0.255567725
76.1505	0.206888159
76.1707	0.263680987
76.1909	0.344813598
76.2112	0.178491745
76.2314	0.275850878
76.2517	0.405663056
76.2719	0.377266642
76.2922	0.150095331
76.3124	0.377266642
76.3327	0.21500142
76.3529	0.227171312
76.3732	0.137925439
76.3934	0.324530445
76.4137	0.365096751
76.4339	0.324530445
76.4542	0.271794248
76.4744	0.466512515
76.4947	0.474625776
76.5149	0.198774898
76.5352	0.515192081
76.5554	0.259624356
76.5757	0.28802077
76.5959	0.227171312
76.6161	0.308303923
76.6364	0.267737617
76.6566	0.312360553
76.6769	0.43405947
76.6971	0.247454464
76.7174	0.271794248
76.7376	0.14198207
76.7579	0.21905805
76.7781	0.227171312
76.7984	0.417832948
76.8186	0.409719687
76.8389	0.328587076
76.8591	0.283964139
76.8794	0.369153381
76.8996	0.494908929
76.9199	0.373210012
76.9401	0.243397834
76.9604	0.450285992
76.9806	0.567928279
77.0009	0.596324693
77.0211	0.328587076
77.0413	0.511135451
77.0616	0.527361973
77.0818	0.482739037
77.1021	0.296134031
77.1223	0.438116101
77.1426	0.251511095
77.1628	0.490852298
77.1831	0.709910348
77.2033	0.352926859
77.2236	0.762646546
77.2438	0.482739037
77.2641	0.628777737
77.2843	0.726136871
77.3046	0.807269482
77.3248	0.908685246
77.3451	1.026327532
77.3653	1.160196341
77.3856	1.188592755
77.4058	1.890389842
77.4261	2.296052898
77.4463	2.774735305
77.4665	3.010019877
77.4868	3.164171839
77.507	3.273700864
77.5273	3.744270009
77.5475	4.186442741
77.5678	4.231065677
77.588	4.275688613
77.6083	4.263518721
77.6285	4.409557422
77.6488	4.231065677
77.669	4.166159588
77.6893	4.170216218
77.7095	4.158046327
77.7298	3.756439901
77.75	4.012007626
77.7703	4.133706543
77.7905	4.076913715
77.8108	4.186442741
77.831	3.910591862
77.8513	3.857855665
77.8715	3.147945317
77.8918	3.168228469
77.912	2.616526713
77.9322	2.458318121
77.9525	2.158127459
77.9727	2.150014198
77.993	2.194637134
78.0132	1.841710275
78.0335	1.94718267
78.0537	1.756521034
78.074	1.51717983
78.0942	1.233215691
78.1145	1.265668736
78.1347	1.306235041
78.155	0.969534704
78.1752	1.135856558
78.1955	0.977647966
78.2157	1.127743296
78.236	1.07906373
78.2562	0.896515354
78.2765	0.957364813
78.2967	1.00604438
78.317	0.957364813
78.3372	0.799156221
78.3574	0.709910348
78.3777	0.884345463
78.3979	0.778873068
78.4182	0.961421443
78.4384	0.969534704
78.4587	1.014157641
78.4789	1.014157641
78.4992	0.64906089
78.5194	0.900571985
78.5397	1.208875908
78.5599	1.29812178
78.5802	1.330574825
78.6004	1.22510243
78.6207	1.330574825
78.6409	1.241328952
78.6612	1.338688086
78.6814	1.618595594
78.7017	1.598312442
78.7219	1.817370492
78.7422	1.959352562
78.7624	1.935012778
78.7826	2.150014198
78.8029	1.94312604
78.8231	2.174353982
78.8434	2.101334631
78.8636	1.918786256
78.8839	1.764634295
78.9041	1.695671575
78.9244	1.610482333
78.9446	1.509066569
78.9649	1.533406353
78.9851	1.3670845
79.0054	1.302178411
79.0256	1.302178411
79.0459	1.387367652
79.0661	1.233215691
79.0864	1.127743296
79.1066	1.200762647
79.1269	0.941138291
79.1471	0.949251552
79.1674	0.973591335
79.1876	0.559815018
79.2078	0.726136871
79.2281	0.636890998
79.2483	0.592268062
79.2686	0.478682406
79.2888	0.515192081
79.3091	0.555758387
79.3293	0.689627196
79.3496	0.397549795
79.3698	0.36104012
79.3901	0.377266642
79.4103	0.35698349
79.4306	0.21905805
79.4508	0.405663056
79.4711	0.397549795
79.4913	0.320473814
79.5116	0.267737617
79.5318	0.36104012
79.5521	0.194718267
79.5723	0.555758387
79.5926	0.308303923
79.6128	0.279907509
79.6331	0.466512515
79.6533	0.490852298
79.6735	0.50302219
79.6938	0.413776317
79.714	0.527361973
79.7343	0.539531865
79.7545	0.657174151
79.7748	0.563871648
79.795	0.466512515
79.8153	0.409719687
79.8355	0.425946209
79.8558	0.478682406
79.876	0.519248712
79.8963	0.596324693
79.9165	0.470569145
79.9368	0.474625776
79.957	0.405663056
79.9773	0.43405947
79.9975	0.43000284
